time,theta,thetadot,x,xdot
0.0016600000000005822,-0.07897769329516685,0.026875754946954954,-0.2100156146746214,-0.018812929852889206
0.0033200000000011645,-0.07891094554955677,0.053543834340054317,-0.21006234565082876,-0.03748965691606844
0.004980000000001747,-0.07880010602747459,0.07999878477469714,-0.21013996323059347,-0.05602584067597652
0.006640000000002329,-0.07864553297996746,0.10623523205238254,-0.21024823056024478,-0.07441720030480165
0.008300000000002911,-0.07844759351320993,0.13224788134987653,-0.21038690372989985,-0.09265951508841226
0.009960000000003494,-0.07820666345657667,0.15803151742624855,-0.21055573187361334,-0.11074862486532222
0.011620000000004077,-0.07792312723034034,0.18358100486769566,-0.21075445727026448,-0.1286804304763786
0.01328000000000466,-0.07759737771293182,0.20889128836992574,-0.2109828154451992,-0.14645089422479993
0.014940000000005242,-0.07722981610770095,0.23395739305773017,-0.21124053527264422,-0.16405604034613458
0.016600000000005825,-0.07682085180911626,0.2587744248412376,-0.21152733907890905,-0.18149195548765243
0.018270000000005535,-0.07636806815240336,0.2834856175199721,-0.21184493081437322,-0.198858807310419
0.019940000000005245,-0.0758742356794629,0.30793505260936677,-0.21219137560966408,-0.21604663908388594
0.021610000000004955,-0.07533979547320364,0.3321179963851904,-0.21256637133786116,-0.23305166005945677
0.023280000000004665,-0.07476519645113985,0.35602979969707793,-0.21296960959662667,-0.24987014547133946
0.024950000000004375,-0.07415089522370635,0.3796658985127966,-0.21340077581883873,-0.2664984370700565
0.026620000000004085,-0.07349735595163788,0.4030218144945931,-0.2138595493841203,-0.2829329436616146
0.028290000000003795,-0.07280505020236024,0.42609315560620137,-0.21434560373127245,-0.2991701416514858
0.029960000000003505,-0.07207445680534329,0.44887561674898147,-0.21485860647161953,-0.3152065755925119
0.03163000000000321,-0.07130606170636863,0.4713649804255561,-0.2153982195032718,-0.3310388587358072
0.03330000000000292,-0.07050035782066726,0.49355711742920944,-0.2159640991263099,-0.34666367358370026
0.034970000000002624,-0.06965784488488588,0.5154479875572198,-0.21655589615889373,-0.36207777244372435
0.03664000000000233,-0.06877902930784345,0.5370336403462056,-0.21717325605429638,-0.3772779779826344
0.03831000000000204,-0.06786442402004278,0.5583102158274816,-0.2178158190188627,-0.39226118377940417
0.03998000000000174,-0.06691454832190563,0.5792739453003405,-0.21848322013088964,-0.40702435487613053
0.04165000000000145,-0.06592992773070301,0.599921152121101,-0.21917508946042386,-0.42156452832575086
0.043320000000001156,-0.06491109382615635,0.6202482525056973,-0.21989105218997082,-0.4358788137354597
0.04499000000000086,-0.06385858409468877,0.6402517563435175,-0.22063072873610676,-0.44996439380469416
0.04666000000000057,-0.06277294177230949,0.6599282680201448,-0.22139373487198363,-0.46381852485654274
0.048330000000000276,-0.06165471568611882,0.6792744872466011,-0.22217968185071538,-0.47743853736142167
0.04999999999999998,-0.060504460094424485,0.6982872098926486,-0.22298817652963118,-0.4908218364518521
0.051670000000001146,-0.059322734525463945,0.7169633288216806,-0.2238188214953809,-0.5039659024271781
0.05334000000000231,-0.05811010361473705,0.7352998347246017,-0.22467121518987132,-0.5168682912469917
0.05501000000000347,-0.05686713694094263,0.7532938169503168,-0.2255449520370203,-0.5295266350122049
0.056680000000004636,-0.0555944088605371,0.7709424643300964,-0.22643962257030031,-0.541938642432475
0.0583500000000058,-0.05429249834092228,0.7882430659933206,-0.22735481356105106,-0.5541020992788749
0.060020000000006964,-0.05296198879228006,0.8051930121719978,-0.22829010814753484,-0.5660148688206288
0.06169000000000813,-0.05160346789807484,0.8217897949914651,-0.22924508596470722,-0.5776748922447641
0.0633600000000093,-0.050217527444248816,0.8380310092446877,-0.2302193232746733,-0.5890801890575368
0.06503000000001047,-0.048804763147139905,0.8539143531475822,-0.23121239309779834,-0.6002288574665061
0.06670000000001164,-0.04736577448015588,0.86943762907281,-0.2322238653444397,-0.611119074742152
0.06837000000001135,-0.045901164499244224,0.8845987442594956,-0.23325330694726354,-0.6217490975579406
0.07004000000001107,-0.04441153966719352,0.8993957114964404,-0.23430028199411468,-0.6321172623078238
0.07171000000001078,-0.0428975096768255,0.9138266497762348,-0.23536435186139143,-0.6422219854000419
0.07338000000001049,-0.04135968727311558,0.9278897849179902,-0.2364450753478943,-0.6520617635263201
0.0750500000000102,-0.039798688074302695,0.9415834501562572,-0.2375420088091021,-0.6616351739054367
0.07672000000000992,-0.0382151303920455,0.9549060866938376,-0.23865470629183272,-0.6709408745002333
0.07839000000000963,-0.036609635050687095,0.9678562442162459,-0.23978271966924358,-0.6799776042071635
0.08006000000000935,-0.03498282520569421,0.9804325813656485,-0.24092559877612502,-0.6887441830175182
0.08173000000000906,-0.03333532616134021,0.9926338661721813,-0.24208289154443882,-0.6972395121495057
0.08340000000000877,-0.03166776518770484,1.004458976440632,-0.2432541441390523,-0.7054625741504091
0.0850600000000079,-0.029990930062062868,1.0158380999794547,-0.24443176720770243,-0.7133647502893488
0.08672000000000701,-0.02829551574701441,1.026843662109126,-0.24562228311788725,-0.7209961506429378
0.08838000000000613,-0.026582142995501063,1.0374748857086824,-0.2468252417526287,-0.7283560156634299
0.09004000000000525,-0.024851433760757106,1.0477311018540632,-0.2480401918000369,-0.7354436652896246
0.09170000000000438,-0.02310401101659168,1.0576117499509596,-0.24926668088521214,-0.7422584988913727
0.0933600000000035,-0.021340498577494055,1.0671163778149058,-0.2505042557020283,-0.7487999951817343
0.09502000000000262,-0.019561520918650533,1.07624464169736,-0.2517524621447429,-0.7550677120963893
0.09668000000000174,-0.01776770299596366,1.08499630625664,-0.25301084543938,-0.7610612866399604
0.09834000000000086,-0.015959670066166092,1.0933712444726922,-0.2542789502748302,-0.7667804346989602
0.09999999999999998,-0.014138047507123157,1.1013694375047918,-0.2555563209336124,-0.772224950821136
0.10167000000000115,-0.012292370497767675,1.1090371564645618,-0.2568502755254561,-0.7774259350000546
0.10334000000000232,-0.010434206612969605,1.1163238564830205,-0.2581526835003348,-0.7823487824802713
0.10501000000000349,-0.008564191892055928,1.123229847614467,-0.25946308039562516,-0.7869935228631277
0.10668000000000466,-0.006682961765080605,1.1297555495473959,-0.26078100186434644,-0.7913602650760672
0.10835000000000583,-0.004791150870109335,1.135901491153776,-0.2621059838073009,-0.7954491969703984
0.110020000000007,-0.0028893928713087293,1.1416683099762563,-0.26343756250451267,-0.7992605848840787
0.11169000000000817,-0.0009783202779435943,1.1470567516532761,-0.26477527474590795,-0.802794773169708
0.11336000000000934,0.0009414357356140543,1.1520676692821923,-0.2661186579611779,-0.8060521836879894
0.11503000000001051,0.0028692455087609356,1.1567020227206717,-0.26746725034876706,-0.8090333152669699
0.11670000000001168,0.004804481072320602,1.1609608778267246,-0.26882059100393074,-0.8117387431274379
0.11838000000001052,0.006758164896639678,1.1648689476265484,-0.2701863618101849,-0.8141837585017155
0.12006000000000935,0.008718097110188113,1.1683994764015397,-0.2715560070268654,-0.8163511463204818
0.12174000000000819,0.010683644626303735,1.1715538680331254,-0.27292906092527314,-0.8182417218798972
0.12342000000000702,0.012654176804871168,1.1743336312369028,-0.2743050592098534,-0.8198563760249047
0.12510000000000587,0.014629065627531527,1.1767403784734283,-0.27568353914448174,-0.8211960743904336
0.12678000000000472,0.016607685871013116,1.178775824800509,-0.2770640396774494,-0.8222618566110862
0.12846000000000357,0.018589415278485878,1.180441786668285,-0.2784461015650944,-0.8230548355000903
0.13014000000000242,0.020573634728844666,1.1817401806585015,-0.27982926749402853,-0.8235761961983546
0.13182000000000127,0.022559728403828857,1.1826730221694748,-0.2812130822019103,-0.8238271952945059
0.13350000000000012,0.02454708395288836,1.1832424240483652,-0.282597092596716,-0.8238091599168308
0.1351600000000007,0.02651142367426135,1.1834475526276063,-0.28396437737246893,-0.8235267135319764
0.13682000000000127,0.028475813054289548,1.1833022592311617,-0.285330977597532,-0.822984401483853
0.13848000000000185,0.030439672313618757,1.1828088552973939,-0.2866964631227511,-0.8221837023393572
0.14014000000000243,0.03240242558226537,1.181969739477713,-0.2880604063061261,-0.8211261581974985
0.141800000000003,0.0343635010431393,1.1807873961267705,-0.289422382117468,-0.8198133737165154
0.14346000000000358,0.036322331073028666,1.179264393754266,-0.29078196824142405,-0.8182470151206853
0.14512000000000416,0.03827835238098415,1.1774033834403588,-0.29213874517883814,-0.816428809187877
0.14678000000000474,0.04023100614404434,1.1752070972167161,-0.2934922963464156,-0.8143605422189194
0.14844000000000532,0.04217973814024662,1.1726783464152795,-0.2948422081746625,-0.8120440589898704
0.1501000000000059,0.04412399887887192,1.169820019986863,-0.29618807020407273,-0.8094812616882833
0.1517700000000056,0.04607490998417498,1.166616178564034,-0.2975375418365058,-0.8066572854591149
0.1534400000000053,0.048020197247057424,1.1630848525431556,-0.2988820926321844,-0.8035880374277168
0.155110000000005,0.04995931641646608,1.1592292101356854,-0.30022131474613567,-0.800275623242531
0.1567800000000047,0.05189172859268531,1.1550524918993703,-0.3015548038951757,-0.7967222028566993
0.1584500000000044,0.053816900346607736,1.1505580088834924,-0.3028821594476291,-0.7929299893665126
0.1601200000000041,0.055734303835892604,1.1457491407564526,-0.3042029845111006,-0.7889012478401943
0.1617900000000038,0.05764341691798425,1.1406293339179912,-0.3055168860182837,-0.7846382941381628
0.1634600000000035,0.059543723259966826,1.1352020995983185,-0.3068234748107926,-0.7801434937259093
0.1651300000000032,0.061434712445235455,1.1294710119464264,-0.30812236572100665,-0.7754192604806143
0.1668000000000029,0.06331588007696745,1.123439706109813,-0.3094131776519174,-0.7704680554926053
0.1684700000000026,0.06518672787838127,1.1171118763078356,-0.3106955336549704,-0.7652923858627471
0.1701400000000023,0.06704676378977424,1.1104912739008674,-0.3119690610058963,-0.7598948034968276
0.171810000000002,0.0688955020623339,1.1035817054573949,-0.3132333912785267,-0.7542779038979861
0.1734800000000017,0.07073246334872131,1.096387030821149,-0.3144881604165926,-0.7484443249582002
0.1751500000000014,0.07255717479042804,1.0889111611803197,-0.3157330088035047,-0.7423967457498255
0.1768200000000011,0.07436917010191196,1.0811580571408432,-0.3169675813301158,-0.7361378853181496
0.1784900000000008,0.07616798965152032,1.073131726805703,-0.3181915274604693,-0.7296705014758953
0.1801600000000005,0.07795318053921169,1.0648362238621212,-0.31940450129553577,-0.722997389600573
0.18183000000000019,0.07972429667109154,1.0562756456784559,-0.3206061616349449,-0.7161213814355522
0.18349999999999989,0.08148089883077897,1.0474541314125547,-0.32179617203671856,-0.7090453438956842
0.18516000000000046,0.08321217071852045,1.038429962076031,-0.3229671829358829,-0.7018156487792523
0.18682000000000104,0.08492825545778834,1.0291562666818164,-0.3241260333041394,-0.6943940754142194
0.18848000000000162,0.08662874230550288,1.0196372225317094,-0.325272407041752,-0.6867835360891413
0.1901400000000022,0.08831322748076874,1.0098770404883313,-0.32640599290807387,-0.678986972828378
0.19180000000000277,0.0899813142191258,0.9998799632178972,-0.3275264845699741,-0.6710073562659851
0.19346000000000335,0.09163261282389912,0.9896502634526843,-0.3286335806484007,-0.662847684528077
0.19512000000000393,0.09326674071468194,0.9791922422743756,-0.32972698476309703,-0.6545109821242141
0.1967800000000045,0.09488332247298709,0.968510227419381,-0.3308064055754849,-0.6460002988483246
0.19844000000000508,0.09648198988510429,0.9576085716071613,-0.33187155682973185,-0.6373187086896372
0.20010000000000566,0.09806238198220231,0.9464916508925061,-0.33292215739201925,-0.6284693087540658
0.20177000000000536,0.09963349637634301,0.9350958634284688,-0.3339641255690783,-0.6194009921216822
0.20344000000000506,0.10118540545190764,0.9234911349760679,-0.33499081316827595,-0.6101691764358288
0.20511000000000476,0.10271776405232365,0.9116819826348401,-0.33600194983393783,-0.6007770792967472
0.20678000000000446,0.10423023457909743,0.8996729409125499,-0.3369972705999573,-0.5912279376753612
0.20845000000000416,0.10572248701957906,0.8874685601628487,-0.33797651592126515,-0.5815250068612159
0.21012000000000386,0.10719419897214216,0.8750734050520238,-0.3389394317035526,-0.5716715594232018
0.21179000000000356,0.1086450556688278,0.8624920530552797,-0.33988576933126985,-0.5616708841832675
0.21346000000000326,0.11007474999550226,0.8497290929829193,-0.34081528569392155,-0.5515262852032867
0.21513000000000296,0.11148298250957862,0.8367891235367232,-0.3417277432106816,-0.5412410807852159
0.21680000000000266,0.11286946145535295,0.8236767518967484,-0.34262290985334914,-0.5308186024846449
0.21847000000000236,0.11423390277700596,0.8103965923387061,-0.3435005591676686,-0.5202621941378117
0.22014000000000206,0.1155760301293213,0.7969532648820057,-0.34436047029303596,-0.5095752109021265
0.22181000000000176,0.11689557488617172,0.7833513939684891,-0.3452024279806144,-0.498761018310216
0.22348000000000146,0.11819227614682433,0.769595607171818,-0.346026222609881,-0.48782299133747736
0.22515000000000115,0.1194658807401161,0.7556905339374146,-0.3468316502036276,-0.47676451348310145
0.22682000000000085,0.12071614322655043,0.7416408043528002,-0.3476185124414386,-0.4655889758645021
0.22849000000000055,0.12194282589836544,0.7274510479481181,-0.348386616671667,-0.45429977632506413
0.23016000000000025,0.12314569877762419,0.7131258925265768,-0.3491357759219319,-0.44290031855510104
0.23182999999999995,0.12432453961237641,0.698669963024498,-0.34986580890815866,-0.4313940112258922
0.23349999999999965,0.12547913387094112,0.6840878804006061,-0.3505765400421838,-0.4197842671366509
0.23517000000000082,0.1266092747343593,0.6693842605541369,-0.35126779943794667,-0.4080745023742446
0.236840000000002,0.12771476308705978,0.6545637132713801,-0.3519394229162859,-0.39626813548553497
0.23851000000000316,0.12879540750579507,0.6396308412000351,-0.3525912520083677,-0.38436858666203666
0.24018000000000433,0.12985102424688322,0.6245902388509808,-0.35322313395776034,-0.37237927693678163
0.2418500000000055,0.13088143723180623,0.609446491626831,-0.35383492172117775,-0.3603036273931133
0.24352000000000668,0.131886478031208,0.5942041748766949,-0.354426473967912,-0.3481450583851816
0.24519000000000785,0.13286598584733522,0.5788678529765163,-0.35499765507797326,-0.3359069887698919
0.24686000000000902,0.13381980749496322,0.563442078434342,-0.3555483351389568,-0.3235928351500492
0.2485300000000102,0.13474779738084808,0.5479313910198417,-0.3560783899416548,-0.3112060111284348
0.25020000000001136,0.13564981748174468,0.5323403169173838,-0.35658770097443193,-0.29874992657254185
0.2518700000000111,0.13652573732102885,0.5166733679019624,-0.35707615541638077,-0.28622798688970524
0.2535400000000108,0.13737543394396487,0.5009350405371742,-0.3575436461292773,-0.27364359231229
0.25521000000001054,0.1381987918916469,0.4851298153946334,-0.3579900716483482,-0.26100013719276227
0.25688000000001027,0.13899570317365734,0.46926215629392726,-0.3584153361718703,-0.2483010093082479
0.25855000000001,0.13976606723947146,0.45333650956241067,-0.3588193495496168,-0.23554958917434596
0.2602200000000097,0.1405097909486423,0.4373573033140473,-0.359202027270164,-0.222749249367898
0.26189000000000945,0.14122678853979623,0.4213289467465141,-0.35956329044707513,-0.20990335385842654
0.2635600000000092,0.14191698159846958,0.4052558294557812,-0.3599030658039746,-0.19701525734795788
0.2652300000000089,0.1425802990238145,0.3891423207673794,-0.360221285658526,-0.18408830461894687
0.26690000000000863,0.1432166769942015,0.37299276908356627,-0.36051788790532874,-0.1711258298900245
0.26856000000000774,0.14382249033275613,0.35690829681096004,-0.36079123429727883,-0.15820893694430063
0.27022000000000684,0.14440158115941262,0.34079673358112705,-0.36104311501365255,-0.14526349381258982
0.27188000000000595,0.14495390799450578,0.3246622848347593,-0.36127348535052023,-0.13229274033772598
0.27354000000000506,0.14547943632036478,0.3085091331766917,-0.3614823059714738,-0.11929990360675312
0.27520000000000416,0.14597813854293423,0.29234143780815436,-0.3616695428859613,-0.10628819735979385
0.27686000000000327,0.1464499939524618,0.2761633339699177,-0.3618351674266455,-0.09326082140496433
0.2785200000000024,0.14689498868327006,0.25997893239562586,-0.3619791562257957,-0.08022096103911092
0.2801800000000015,0.14731311567262867,0.24379231877462598,-0.3621014911907229,-0.06717178647415167
0.2818400000000006,0.14770437461874256,0.2276075532236151,-0.36220215947826734,-0.05411645226881501
0.2834999999999997,0.14806877193786955,0.21142866976644273,-0.3622811534683468,-0.04105809676557663
0.28517000000000087,0.14840827283059546,0.19516232722573404,-0.3623387503417571,-0.027921195077991595
0.28684000000000204,0.14872062086556936,0.1789100295940947,-0.36237441137072074,-0.014787544520574816
0.2885100000000032,0.1490058428582458,0.16267580140469548,-0.36238814460858515,-0.0016602875535411989
0.2901800000000044,0.1492639723209261,0.14646363840221166,-0.3623799633408187,0.011457452233246554
0.29185000000000555,0.14949504941426156,0.13027750703914695,-0.3623498860530328,0.024562570676455175
0.2935200000000067,0.14969912089791948,0.1141213439768862,-0.36229793639807945,0.03765198359108606
0.2951900000000079,0.14987624008041972,0.09799905559092977,-0.36222414316223006,0.0507226273180387
0.29686000000000906,0.15002646676814793,0.0819145174797882,-0.3621285402304441,0.06377145926755022
0.29853000000001023,0.15014986721355147,0.06587157397704009,-0.3620111665507331,0.07679545845861699
0.3002000000000114,0.15024651406252273,0.04987403766608203,-0.36187206609762734,0.0897916260544917
0.30187000000001113,0.150316486300974,0.03392568889713968,-0.36171128783475137,0.10275698589432576
0.30354000000001086,0.1503598692006075,0.01803027530605242,-0.36152888567651487,0.11568858502108204
0.3052100000000106,0.15037675426388292,0.002191511334580322,-0.36132491844892506,0.12858349420566073
0.3068800000000103,0.15036723916818465,-0.013586922248269007,-0.3610994498495272,0.14143880846739523
0.30855000000001004,0.15033142770919075,-0.029301378824158307,-0.3608525484064784,0.15425164759089183
0.31022000000000977,0.15026942974344382,-0.04494824640290358,-0.3605842874367617,0.16701915663924308
0.3118900000000095,0.15018136113012484,-0.06052394809979931,-0.3602947450035461,0.17973850646362066
0.3135600000000092,0.1500673436720299,-0.07602494261303425,-0.35998400387269847,0.19240689420924084
0.31523000000000895,0.14992750505574923,-0.09144772470141702,-0.3596521514684538,0.20502154381768356
0.3169000000000087,0.14976197879104833,-0.10678882566260123,-0.35929927982824944,0.21757970652553413
0.3185700000000084,0.14957090414944973,-0.1220448138119707,-0.3589254855567298,0.230078661359304
0.32024000000000813,0.14935442610201452,-0.13721229496231566,-0.35853086977892784,0.24251571562657523
0.32191000000000786,0.14911269525632204,-0.15228791290440163,-0.3581155380926293,0.254888205403302
0.3235800000000076,0.14884586779264636,-0.16726834988850342,-0.3576796005199267,0.26719349601719006
0.3252500000000073,0.14855410539932767,-0.18215032710694723,-0.3572231714579694,0.2794289825270647
0.32692000000000704,0.14823757520733705,-0.19693060517767502,-0.35674636962891637,0.29159209019812554
0.32859000000000677,0.1478964497240329,-0.21160598462881655,-0.356249318029099,0.30368027497297667
0.3302600000000065,0.14753090676610736,-0.22617330638422584,-0.3557321438774009,0.31569102393830933
0.3319300000000062,0.1471411293917211,-0.2406294522499105,-0.35519497856286214,0.3276218557871042
