time,theta,thetadot,x,xdot
0.001670000000000073,0.2799783132109612,-0.025972428807343722,-0.6119813988161137,0.022276937662314717
0.003340000000000146,0.27991333047437916,-0.05185188529727278,-0.61192564859353,0.04449000757159541
0.005010000000000219,0.2798052115950185,-0.07763292828888137,-0.6118328598828514,0.06663454827749976
0.006680000000000292,0.27965412543608975,-0.10331015029763896,-0.6117031509945025,0.08870592794846928
0.008350000000000364,0.27946024986288354,-0.12887817765154327,-0.6115366479486823,0.11069954507345678
0.010020000000000437,0.2792237716861783,-0.154331670645665,-0.611333484424134,0.13261082917714012
0.011690000000000509,0.27894488660535754,-0.17966532373605623,-0.6110938017057076,0.15443524154860608
0.013360000000000581,0.27862379915116997,-0.20487386577391165,-0.610817748630696,0.17616827598345092
0.015030000000000654,0.2782607226280639,-0.22995206028078685,-0.6105054815339201,0.19780545953920758
0.016700000000000728,0.2778558790560278,-0.25489470576559414,-0.6101571641915412,0.219342353303972
0.018360000000000584,0.27741229533523687,-0.2795480384567033,-0.6097753748672988,0.24064619083743483
0.02002000000000044,0.27692790701541553,-0.3040572787567932,-0.6093583107063361,0.26184228149846983
0.021680000000000296,0.2764029574385289,-0.3284174235672772,-0.6089061540984553,0.2829263705750571
0.023340000000000152,0.2758376982218202,-0.35262350560358396,-0.6084190944660661,0.3038942397000053
0.02500000000000001,0.2752323891979353,-0.37667059391239266,-0.6078973282031858,0.32474170765757715
0.026659999999999864,0.274587298354153,-0.4005537944315813,-0.6073410586130906,0.34546463120139903
0.02831999999999972,0.2739027017706506,-0.42426825059299633,-0.6067504958446012,0.366058905883299
0.029979999999999576,0.27317888355773334,-0.44780914396806654,-0.6061258568269824,0.38652046689268765
0.03163999999999943,0.27241613579195645,-0.47117169495619793,-0.6054673652034426,0.40684528990606444
0.03329999999999929,0.27161475845106975,-0.49435116351580133,-0.6047752512632135,0.4270293919461997
0.03496999999999936,0.2707698852259317,-0.5174815069887042,-0.6040452805800425,0.44718959889915433
0.03663999999999944,0.26988654726629413,-0.540417070914144,-0.6032817679985145,0.4671994375280643
0.03830999999999951,0.2689650737737399,-0.563153154650693,-0.6024849679082004,0.48705498408148545
0.039979999999999585,0.26800580176313415,-0.5856851015086407,-0.6016551412129251,0.5067523607753484
0.04164999999999966,0.26700907598842233,-0.6080082997182208,-0.6007925552532298,0.5262877367203923
0.043319999999999734,0.26597524886677715,-0.6301181834392041,-0.5998974837272808,0.5456573288561818
0.04498999999999981,0.2649046804010253,-0.6520102338110606,-0.5989702066102119,0.5648574028910213
0.04665999999999988,0.2637977381002876,-0.673679980042802,-0.5980110100718949,0.5838842742470565
0.048329999999999956,0.2626547968987666,-0.6951230005415219,-0.5970201863931264,0.6027343090098197
0.05000000000000003,0.26147623907261813,-0.7163349240785605,-0.5959980338802264,0.6214039248814489
0.051670000000000105,0.2602624541548453,-0.7373114309921281,-0.5949448567780432,0.6398895921367825
0.05334000000000018,0.2590138388481542,-0.7580482544251287,-0.5938609651813587,0.6581878345815052
0.05501000000000025,0.25773079693571455,-0.7785411815968364,-0.5927466749446938,0.6762952305114921
0.05668000000000033,0.25641373918976923,-0.798786055106987,-0.5916023075905108,0.6942084136724728
0.0583500000000004,0.2550630832780406,-0.818778774270756,-0.5904281902158133,0.7119240742191129
0.060020000000000476,0.2536792536678825,-0.8385152964830096,-0.5892246553971465,0.7294389596725832
0.06169000000000055,0.25226268152813114,-0.8579916386101263,-0.587992041094,0.7467498758756663
0.06336000000000062,0.25081380462860997,-0.8772038784076018,-0.5867306905506184,0.7638536879444233
0.0650300000000007,0.24933306723724724,-0.8961481559615696,-0.585440952196226,0.7807473212154253
0.06670000000000077,0.2478209200147676,-0.9148206751522829,-0.584123179543675,0.7974277621875302
0.06837000000000085,0.24627781990692318,-0.93321770513753,-0.5827777310865251,0.8138920594571664
0.07004000000000092,0.24470423003423222,-0.9513355818538739,-0.5814049701945688,0.8301373246460665
0.071710000000001,0.24310061957919762,-0.9691707095335363,-0.5800052650078138,0.8461607333203746
0.07338000000000107,0.24146746367098085,-0.9867195622346712,-0.5785789883289381,0.8619595259000364
0.07505000000000114,0.23980524326751107,-1.0039786853827068,-0.5771265175142363,0.8775310085573652
0.07672000000000122,0.23811444503501278,-1.0209446973203717,-0.575648234363075,0.8928725541036617
0.07839000000000129,0.23639556122493957,-1.0376142908639538,-0.5741445250058781,0.9079816028627564
0.08006000000000137,0.23464908954830568,-1.0539842348632877,-0.5726157797906652,0.92285566353033
0.08173000000000144,0.2328755330474112,-1.0700513757629129,-0.5710623931681679,0.9374923140178597
0.08340000000000151,0.2310753999649613,-1.0858126391617897,-0.5694847635755499,0.9518892022800318
0.08507000000000159,0.22924920361058373,-1.1012650313689234,-0.5678832933187612,0.9660440471244555
0.08674000000000166,0.22739746222475427,-1.1164056409521996,-0.5662583884535543,0.9799546390025089
0.08841000000000174,0.22552069884014303,-1.1312316402777023,-0.5646104586651972,0.9936188407801501
0.09008000000000181,0.22361944114040036,-1.1457402870367555,-0.5629399171469169,1.0070345884875207
0.09175000000000189,0.22169422131640487,-1.1599289257579044,-0.561247180477109,1.0201998920461797
0.09342000000000196,0.2197455759200012,-1.1737949893010333,-0.5595326684953527,1.0331128359728035
0.09509000000000203,0.21777404571525963,-1.187336000330803,-0.5577968041772712,1.045771580058202
0.09676000000000211,0.21578017552729442,-1.200549572766586,-0.5560400135082799,1.0581743600205056
0.09843000000000218,0.21376451408868255,-1.2134334132060738,-0.5542627253562655,1.0703194881313922
0.10010000000000226,0.21172761388352912,-1.2259853223197372,-0.5524653713432429,1.08220535381424
0.10177000000000197,0.20967003098923093,-1.2382031962133315,-0.5506483857160381,1.0938304242131025
0.10344000000000168,0.20759232491599153,-1.250085027755668,-0.5488122052160446,1.1051932447314425
0.1051100000000014,0.20549505844415275,-1.2616289078688636,-0.5469572689481075,1.1162924395395426
0.10678000000000111,0.20337879745940307,-1.2728330267783619,-0.5450840182485869,1.1271267120495865
0.10845000000000082,0.20124411078593438,-1.28369567522002,-0.5431928965526551,1.1376948453573978
0.11012000000000054,0.19909157001762082,-1.2942152456016143,-0.5412843492608852,1.1479957026498673
0.11179000000000025,0.19692174934729786,-1.3043902331161714,-0.5393588236051878,1.158028227577128
0.11345999999999996,0.19473522539422417,-1.3142192368045866,-0.5374167685141574,1.167791444588579
0.11512999999999968,0.19253257702981297,-1.3237009605650611,-0.5354586344778874,1.1772844592318932
0.11679999999999939,0.19031438520172403,-1.3328342141069591,-0.533484873412318,1.1865064584141862
0.11846999999999946,0.18808123275641,-1.3416179138467714,-0.5314959385231788,1.1954567106245737
0.12013999999999954,0.18583370426021864,-1.3500510837439423,-0.5294922841695952,1.2041345661173715
0.12180999999999961,0.18357238581914795,-1.3581328560744421,-0.5274743657274188,1.212539457055278
0.12347999999999969,0.18129786489736474,-1.365862472140025,-0.5254426394523548,1.220670897611889
0.12514999999999976,0.17901073013459348,-1.3732392829112472,-0.5233975623429515,1.2285284840329727
0.12681999999999982,0.1767115711624878,-1.38026274960242,-0.5213395920035229,1.236111894655986
0.12848999999999988,0.1744009784200999,-1.3869324441767892,-0.519269186507073,1.2434208898873642
0.13015999999999994,0.17207954296856562,-1.393248049780355,-0.5171868042582949,1.2504553121371804
0.13183,0.16974785630512562,-1.3992093611028744,-0.5150929038567131,1.2572150857108326
0.13350000000000006,0.16740651017660554,-1.4048162846647154,-0.5129879439600444,1.2637002166574771
0.13516000000000028,0.1650701969219643,-1.4100370592581621,-0.5108850820693561,1.269873509710775
0.1368200000000005,0.1627255076861916,-1.4149078352198947,-0.5087721975272497,1.2757756994160658
0.1384800000000007,0.160373023266827,-1.4194288509241761,-0.5066497401613059,1.2814070310416956
0.14014000000000093,0.15801332397486928,-1.4236004542883391,-0.5045181593266013,1.2867678286389916
0.14180000000000115,0.15564698945301061,-1.4274231026774462,-0.5023779037752236,1.291858494683815
0.14346000000000136,0.15327459849409283,-1.4308973627326227,-0.5002294215264187,1.2966795096761192
0.14512000000000158,0.15089672885991173,-1.4340239101227643,-0.4980731597374352,1.3012314316977023
0.1467800000000018,0.14851395710049733,-1.4368035292194634,-0.4959095645751388,1.3055148959284004
0.14844000000000201,0.14612685837399733,-1.4392371126951526,-0.49373908108846337,1.3095306141210417
0.15010000000000223,0.1437360062672912,-1.4413256610446066,-0.4915621530817677,1.3132793740355433
0.15177000000000193,0.1413275418604578,-1.4430811201760638,-0.48936605526341037,1.3167831125827223
0.15344000000000163,0.13891643545195334,-1.4444897173484503,-0.4871643302834985,1.3200184852717995
0.15511000000000133,0.13650326517675557,-1.4455527971855116,-0.48495742545229553,1.322986522690516
0.15678000000000103,0.13408860683443038,-1.4462718120199103,-0.48274578629626475,1.3256883305548648
0.15845000000000073,0.13167303370998965,-1.4466483210120633,-0.4805298564332591,1.3281250889233518
0.16012000000000043,0.12925711639628343,-1.4466839891936005,-0.4783100774490554,1.3302980513726859
0.16179000000000013,0.1268414226180516,-1.446380586436645,-0.4760868887752969,1.332208544135757
0.16345999999999983,0.12442651705775755,-1.4457399863502534,-0.4738607275689059,1.333857965202819
0.16512999999999953,0.12201296118332461,-1.4447641651054917,-0.4716320285930273,1.3352477833868495
0.16679999999999923,0.11960131307789267,-1.443455200190754,-0.46940122409956225,1.3363795373541147
0.1684699999999993,0.11719212727170988,-1.4418152690990544,-0.46716874371334866,1.337254834621021
0.17013999999999935,0.11478595457627405,-1.4398466479491516,-0.4649350143180455,1.3378753505183785
0.1718099999999994,0.11238334192082713,-1.4375517100424686,-0.46270045994377085,1.3382428271242588
0.17347999999999947,0.10998483219131387,-1.4349329243578925,-0.4604655016565487,1.3383590721666583
0.17514999999999953,0.10759096407190372,-1.4319928539866325,-0.4582305574496125,1.3382259578972324
0.1768199999999996,0.10520227188917473,-1.4287341545094159,-0.4559960421366124,1.3378454199373937
0.17848999999999965,0.10281928545905401,-1.4251595723183899,-0.4537623672467716,1.337219456098104
0.1801599999999997,0.10044252993660464,-1.4212719428861758,-0.4515299409220347,1.3363501251747218
0.18182999999999977,0.09807252566874561,-1.4170741889846057,-0.4492991678162481,1.3352395457182884
0.18349999999999983,0.09570978804998635,-1.4125693188557273,-0.44707044899641146,1.3338898947846642
0.1851699999999999,0.0933548273812536,-1.4077604243377337,-0.4448441818460346,1.3323034066629436
0.18683999999999995,0.09100814873188341,-1.4026506789485176,-0.4426207599706351,1.3304823715845904
0.18851,0.08867025180484694,-1.3972433359296004,-0.4404005731054061,1.3284291344147514
0.19018000000000007,0.08634163080527386,-1.391541726253217,-0.43818400702508326,1.3261460933272116
0.19185000000000013,0.08402277431233243,-1.3855492565953718,-0.43597144345603733,1.3236356984644595
0.1935200000000002,0.08171416515452092,-1.3792694072776939,-0.4337632599906157,1.3209004505843323
0.19519000000000025,0.07941628028841989,-1.3727057301809409,-0.4315598300037539,1.3179428996947073
0.1968600000000003,0.07712959068095056,-1.3658618466329981,-0.42936152257187626,1.3147656436777004
0.19853000000000037,0.07485456119517916,-1.3587414452742235,-0.4271687023941017,1.3113713269048224
0.20020000000000043,0.07259165047970308,-1.351348279902973,-0.42498172971576864,1.3077626388445314
0.2018600000000003,0.07035474795120986,-1.3437317458472855,-0.422813999791351,1.303965099627012
0.20352000000000015,0.06813070619082925,-1.335853306259584,-0.4206527450594813,1.299961189688209
0.20518,0.0659199567513889,-1.3277168269019484,-0.4184983057993299,1.295753674991916
0.20683999999999986,0.0637229247228107,-1.3193262286050491,-0.41635101766654864,1.2913453600493854
0.2084999999999997,0.061540028642478414,-1.310685485121771,-0.4142112116304175,1.286739086551444
0.21015999999999957,0.05937168040917103,-1.3017986209775354,-0.4120792139132617,1.2819377320011531
0.21181999999999943,0.0572182852005656,-1.2926697093197932,-0.40995534593213667,1.2769442083482183
0.21347999999999928,0.05508024139430865,-1.2833028697691073,-0.4078399242427782,1.271761460626334
0.21513999999999914,0.05295794049265179,-1.2737022662741733,-0.4057332604858108,1.2663924655945968
0.216799999999999,0.05085176705064294,-1.2638721049730637,-0.40363566133520745,1.260840230384097
0.21846999999999905,0.048749560742975435,-1.2537563460272287,-0.40153487754330913,1.2550733453467287
0.22013999999999911,0.046664434457364505,-1.2434168915316433,-0.39944387412949467,1.2491271829987722
0.22180999999999917,0.04459675809040952,-1.232858140062283,-0.3973629478588754,1.2430048897690993
0.22347999999999923,0.0425468941642103,-1.2220845247456331,-0.39529239022060103,1.2367096377205895
0.2251499999999993,0.04051519777045549,-1.2111005111196245,-0.39323248738618094,1.2302446231978446
0.22681999999999936,0.038502016518067395,-1.1999105950135796,-0.39118352017005403,1.2236130654862405
0.22848999999999942,0.036507690484370116,-1.1885193004489663,-0.3891457639923883,1.2168182054831609
0.23015999999999948,0.034532552169744685,-1.1769311775626536,-0.3871194888440884,1.2098633043821951
0.23182999999999954,0.032576926455732416,-1.1651508005542714,-0.3851049592539894,1.2027516423710476
0.2334999999999996,0.030641130566544852,-1.1531827656591795,-0.3831024342582127,1.195486517343845
0.23517999999999953,0.028714064079499627,-1.1409591991960573,-0.38110028688082426,1.1880269239047094
0.23685999999999946,0.02680768473624285,-1.128555086978629,-0.37911079640066214,1.1804187525407022
0.2385399999999994,0.02492229187424398,-1.1159751635009862,-0.37713420956846416,1.172665407124851
0.24021999999999932,0.02305817686479699,-1.1032241778027798,-0.37517076740551875,1.1647703045443945
0.24189999999999925,0.021215623090213173,-1.0903068915327505,-0.373220705182847,1.156736873457352
0.24357999999999919,0.01939490592423887,-1.0772280770460367,-0.37128425240245816,1.148568553067269
0.24525999999999912,0.017596292715640706,-1.0639925155361194,-0.3693616327806483,1.1402687919165053
0.24693999999999905,0.015820042774899443,-1.0506049952021586,-0.36745306423331037,1.131841046698393
0.24861999999999898,0.014066407363952458,-1.037070309452386,-0.3655587588632234,1.1232887810885392
0.2502999999999989,0.012335629688923785,-1.023393255144123,-0.3636789229492895,1.1146154645955089
0.25195999999999913,0.010648138108110685,-1.009742604596793,-0.3618358744741228,1.105929073128174
0.25361999999999935,0.008983414084022092,-0.9959623140332351,-0.360007337845767,1.0971312719087247
0.25527999999999956,0.0073416689757481324,-0.9820570112925383,-0.3581934952167515,1.0882254184644966
0.2569399999999998,0.005723106462721293,-0.9680313211590369,-0.3563945231649739,1.0792148716956047
0.2586,0.004127922551019065,-0.9538898638814485,-0.35461059269224404,1.0701029908852613
0.2602600000000002,0.0025563055820953147,-0.9396372537275435,-0.35284186922445526,1.0608931347286294
0.26192000000000043,0.0010084362438813961,-0.9252780975743266,-0.3510885126133526,1.051588660380173
0.26358000000000065,-0.0005155124158018772,-0.910816993533643,-0.3493506771398669,1.0421929225194386
0.26524000000000086,-0.0020153749735800845,-0.89625852961306,-0.3476285115189847,1.0327092724351743
0.2669000000000011,-0.0034909936126672663,-0.8816072824118134,-0.34592215890612316,1.0231410571276627
0.26857000000000114,-0.00495088633814202,-0.8667792389223256,-0.34422162227910197,1.0134335574599866
0.2702400000000012,-0.0063859456771688155,-0.8518665213430157,-0.3425373629502382,1.003647235419069
0.27191000000000126,-0.007796034081404283,-0.8368737469325249,-0.34086950972188734,0.9937854804152034
0.2735800000000013,-0.009181021699353538,-0.8218055162700872,-0.33921818574269363,0.9838516739684731
0.2752500000000014,-0.010540786347538024,-0.8066664120875218,-0.33758350852146396,0.9738491888749986
0.27692000000000144,-0.011875213479741194,-0.7914609981351401,-0.33596558994241943,0.9637813883908257
0.2785900000000015,-0.013184196154388162,-0.7761938180810042,-0.33436453628179513,0.9536516254331803
0.28026000000000156,-0.014467635000114571,-0.7608693944429311,-0.3327804482257598,0.9434632417988039
0.2819300000000016,-0.015725438179578784,-0.7454922275526141,-0.3312134208896265,0.9332195673990695
0.2836000000000017,-0.016957521351570526,-0.7300667945511927,-0.32966354383832713,0.9229239195115649
0.2852700000000014,-0.018163807631467632,-0.7145975484155853,-0.3281309011081233,0.9125796020478255
0.28694000000000114,-0.01934422755009301,-0.6990889170148538,-0.3266155712295259,0.9021899048368756
0.28861000000000087,-0.020498719011018705,-0.6835453021958974,-0.32511762725139975,0.8917581029242637
0.2902800000000006,-0.02162722724636809,-0.6679710788976904,-0.32363713676622513,0.8812874558862289
0.2919500000000003,-0.02272970477116186,-0.652370594293312,-0.32217416193649256,0.8707812071586619
0.29362000000000005,-0.023806111336253866,-0.6367481669589868,-0.320728759522206,0.8602425833805114
0.2952899999999998,-0.024856413879901246,-0.6211080860693458,-0.3193009809094707,0.8496747937512849
0.2969599999999995,-0.02588058647801197,-0.6054546106181128,-0.31789087214014283,0.8390810294022933
0.29862999999999923,-0.026878610293111598,-0.5897919686634175,-0.31649847394251746,0.8284644627812906
0.30029999999999896,-0.027850473522069697,-0.5741243565969326,-0.3151238217630335,0.8178282470501589
0.301969999999999,-0.028796171342625243,-0.5584559384360308,-0.3137669457989735,0.8071755154952938
0.3036399999999991,-0.02971570585874778,-0.542790845138182,-0.3124278710321392,0.796509380950359
0.30530999999999914,-0.030609086044872835,-0.5271331739367614,-0.3111066172634785,0.7858329352310515
0.3069799999999992,-0.03147632768904465,-0.5114869876975178,-0.3098031991486485,0.7751492485815693
0.30864999999999926,-0.03231745333500111,-0.4958563142949065,-0.3085176262344928,0.7644613691324466
0.3103199999999993,-0.03313249222323319,-0.48024514600752394,-0.3072499029964148,0.7537723223694407
0.3119899999999994,-0.033921480231050176,-0.4646574389318885,-0.30600002887662925,0.7430851106131635
0.31365999999999944,-0.03468445981168075,-0.44909711241382727,-0.30476799832327384,0.7324027125091542
0.3153299999999995,-0.03542147993243859,-0.43356804849674285,-0.3035538008303638,0.7217280825281044
0.31699999999999956,-0.036132596011980246,-0.4180740913860511,-0.30235742097857315,0.7110641504759516
0.3186699999999996,-0.03681786985668158,-0.40261904692909944,-0.30117883847682564,0.700413821013572
0.3203399999999997,-0.03747736959615818,-0.3872066821098935,-0.30001802820468026,0.689779973185808
0.32200999999999974,-0.0381111696179538,-0.3718407245579811,-0.29887496025549565,0.6791654599595839
0.3236799999999998,-0.03871935050142008,-0.3565248620708631,-0.2977495999803581,0.6685731077708684
0.32534999999999986,-0.03930199895080951,-0.3412627421493231,-0.2966419080327593,0.6580057160802576
0.3270199999999999,-0.03985920772760281,-0.3260579715450916,-0.2955518404140091,0.647466056936963
0.32869,-0.040391075582090756,-0.31091411582028194,-0.29447934851936924,0.6369568745510011
0.33036000000000004,-0.04089770718422976,-0.2958346989180628,-0.2934243791848952,0.6264808848733936
0.3320300000000001,-0.041379213053789506,-0.28082320274405326,-0.29238687473497244,0.6160407751841984
0.33370000000000016,-0.04183570948981007,-0.2658830667579555,-0.29136677303053393,0.6056392036882067
0.33536,-0.04226480787777017,-0.25110663572130465,-0.29036996061602155,0.595340815865429
0.3370199999999998,-0.04266944161516243,-0.2364073747063156,-0.2893902075828993,0.5850856639180785
