time,theta,thetadot,x,xdot
0.001669999999999891,-2.6580160917997593,-0.019271588038103204,0.29199536984969293,-0.005545105435306412
0.003339999999999782,-2.6580643669140502,-0.038542834750987603,0.29198147924600604,-0.011090393807693166
0.005009999999999673,-2.658144824487673,-0.05781339852493582,0.29195832773080344,-0.016636047860173878
0.006679999999999564,-2.6582574630944897,-0.07708293716907985,0.2919259145410656,-0.022182249947557492
0.008349999999999455,-2.658402280736222,-0.09635110762644238,0.2918842386096997,-0.02772918184216796
0.010019999999999345,-2.6585792748407617,-0.11561756568451825,0.29183329856667495,-0.03327702453935059
0.011689999999999236,-2.6587884422599988,-0.1348819656852436,0.2917730927404825,-0.03882595806269418
0.013359999999999126,-2.659029779267165,-0.1541439602342003,0.2917036191599214,-0.04437616126889854
0.015029999999999016,-2.6593032815536906,-0.17340319990890427,0.29162487555621025,-0.0499278116522171
0.016699999999998907,-2.6596089442255733,-0.1926593329660268,0.2915368593654264,-0.05548108514840498
0.01836999999999898,-2.659946761799257,-0.21191200504740113,0.29143956773127255,-0.06103615593810382
0.020039999999999055,-2.6603167281970195,-0.23116085888465474,0.2913329975081725,-0.0665931962495917
0.02170999999999913,-2.660718836741862,-0.2504055340023409,0.2912171452646966,-0.07215237616083621
0.023379999999999204,-2.6611530801519083,-0.2696456664194017,0.29109200728731893,-0.07771386340077735
0.025049999999999278,-2.6616194505342965,-0.2888808883488285,0.29095757958450635,-0.08327782314977679
0.026719999999999352,-2.6621179393785726,-0.30811082789537436,0.29081385789114195,-0.08884441783916741
0.028389999999999426,-2.6626485375495754,-0.32733510875117605,0.2906608376732841,-0.09441380694983857
0.0300599999999995,-2.663211235279812,-0.34655334988914765,0.2904985141332625,-0.0999861468097936
0.03172999999999957,-2.663806022161319,-0.36576516525400665,0.2903268822151132,-0.10556159039061731
0.033399999999999645,-2.6644328871370053,-0.3849701634507987,0.29014593661035476,-0.1111402871027926
0.03506999999999954,-2.665091818491473,-0.40416794743078527,0.28995567176410686,-0.11672238258980581
0.03673999999999943,-2.6657828038413123,-0.4233581141745755,0.2897560818815541,-0.12230801852098609
0.03840999999999933,-2.6665058301248625,-0.44254025437235406,0.2895471609347567,-0.12789733238301587
0.04007999999999922,-2.6672608835914398,-0.46171395210110205,0.2893289026698105,-0.13349045727006423
0.041749999999999114,-2.6680479497900187,-0.4808787844986801,0.2891013006143588,-0.139087521672487
0.04341999999999901,-2.668867013557372,-0.5000343214346588,0.2888643480854582,-0.1446886492640435
0.0450899999999989,-2.6697180590056546,-0.519180125177784,0.28861803819780096,-0.1502939586875813
0.046759999999998796,-2.6706010695094293,-0.5383157500599675,0.2883623638722967,-0.15590356333914226
0.04842999999999869,-2.6715160276921304,-0.5574407421366991,0.2880973178450159,-0.1615175711504465
0.05009999999999858,-2.6724629154119555,-0.576554638843781,0.28782289267649835,-0.1671360843697122
0.05176999999999866,-2.673441713747181,-0.5956569686502904,0.2875390807614284,-0.1727591993407738
0.05343999999999873,-2.6744524029808954,-0.6147472507076729,0.2872458743386814,-0.17838700628045945
0.055109999999998806,-2.675494962585144,-0.6338249944949021,0.2869432655017423,-0.18401958905420146
0.05677999999999888,-2.676569371204476,-0.6528896994596081,0.2866312462095019,-0.18965702494984432
0.058449999999998954,-2.6776756066388883,-0.6719408546551137,0.2863098082974308,-0.19529938444962733
0.06011999999999903,-2.678813645826164,-0.6909779383733134,0.2859789434891368,-0.20094673100031937
0.0617899999999991,-2.679983464823589,-0.7100004177733364,0.2856386434083075,-0.2065991207814875
0.06345999999999917,-2.681185038789048,-0.7290077485059446,0.285288899591041,-0.21225660247188524
0.06512999999999924,-2.68241834196149,-0.7479993743336261,0.2849297034985688,-0.21791921701395084
0.06679999999999932,-2.683683347640752,-0.7669747267463491,0.28456104653037345,-0.2235869973764105
0.06846999999999939,-2.6849800281667426,-0.7859332245729548,0.2841829200377042,-0.2292599683149861
0.07013999999999947,-2.686308354897969,-0.8048742735881724,0.2837953153374937,-0.23493814613121244
0.07180999999999954,-2.687668298189406,-0.8237972661152553,0.2833982237266794,-0.24062153842937395
0.07347999999999962,-2.689059827369697,-0.8427015806242423,0.282991636496932,-0.24631014387157685
0.07514999999999969,-2.6904829107176806,-0.8615865813258632,0.2825755449497948,-0.25200395193097863
0.07681999999999976,-2.6919375154382355,-0.8804516177611168,0.2821499404122366,-0.2577029426432027
0.07848999999999984,-2.693423607637436,-0.899296024386564,0.2817148142526211,-0.26340708635597276
0.08015999999999991,-2.6949411522970133,-0.9181191201553895,0.28127015789709603,-0.2691163434770085
0.08182999999999999,-2.6964901132481094,-0.9369202080943022,0.28081596284640453,-0.274830664220231
0.08350000000000006,-2.6980704531443265,-0.9556985748763532,0.28035222069312205,-0.2805499883503341
0.08516999999999995,-2.6996821334340555,-0.974453490389771,0.27987892313932083,-0.2862742449257854
0.08683999999999985,-2.7013251143320822,-0.9931842073029333,0.2793960620146648,-0.2920033520403314
0.08850999999999974,-2.702999354790466,-1.0118899606255864,0.27890362929493784,-0.2977372165630826
0.09017999999999964,-2.7047048124686794,-1.030569967266478,0.2784016171210064,-0.3034757338772736
0.09184999999999953,-2.7064414437030084,-1.0492234255875585,0.27789001781822054,-0.3092187876177947
0.09351999999999942,-2.7082092034752048,-1.0678495149549327,0.27736882391625295,-0.31496624940760465
0.09518999999999932,-2.710008045380385,-1.086447395286769,0.27683802816938013,-0.3207179785931434
0.09685999999999921,-2.7118379215941744,-1.105016206598383,0.2762976235772056,-0.32647382197887465
0.0985299999999991,-2.7136987828390864,-1.123555068544744,0.2757476034058271,-0.3322336135610988
0.100199999999999,-2.7155905783501377,-1.1420630799606648,0.275187961209449,-0.3379971742611884
0.10186999999999907,-2.7175132558396937,-1.1605393183989703,0.2746186908524403,-0.34376431165841015
0.10353999999999915,-2.7194667614615384,-1.1789828396669415,0.2740397865318395,-0.3495348197225074
0.10520999999999922,-2.7214510397741747,-1.197392677361395,0.27345124280030575,-0.35530847854623704
0.1068799999999993,-2.723466033703341,-1.2157678424027365,0.2728530545895164,-0.3610850540780575
0.10854999999999937,-2.7255116845037546,-1.2341073225683887,0.2722452172340114,-0.3668642978551857
0.11021999999999944,-2.7275879317200706,-1.2524100820260047,0.27162772649548206,-0.3726459467372522
0.11188999999999952,-2.729694713147066,-1.270675060866911,0.27100057858750487,-0.37842972264079866
0.11355999999999959,-2.7318319647890426,-1.288901174640251,0.2703637702007172,-0.3842153322748761
0.11522999999999967,-2.7339996208184525,-1.3070873138883314,0.26971729852843374,-0.39000246687801804
0.11689999999999974,-2.7361976135337507,-1.3252323436837037,0.2690611612927005,-0.395790801956879
0.11855999999999978,-2.738412440506799,-1.3432268315464009,0.26839937239741746,-0.40154532932620246
0.12021999999999981,-2.7406571028596183,-1.3611783878734314,0.2677280305226107,-0.4073003561197694
0.12187999999999985,-2.742931528340014,-1.3790858204956282,0.26704713514112244,-0.4130555159135865
0.12353999999999989,-2.7452356426947397,-1.3969479106045966,0.26635668634759874,-0.41881042592997964
0.12519999999999992,-2.7475693696249186,-1.4147634123206767,0.265656684885837,-0.42456468679677034
0.12685999999999997,-2.7499326307407475,-1.4325310522663148,0.2649471321765302,-0.43031788231006957
0.12852000000000002,-2.752325345515503,-1.450249529145578,0.2642280303454017,-0.436069579201081
0.13018000000000007,-2.754747431238851,-1.4679175133305848,0.2634993822517234,-0.4418193269073259
0.13184000000000012,-2.7571988029694787,-1.485533646455662,0.26276119151721006,-0.4475666573487178
0.13350000000000017,-2.7596793734870584,-1.5030965410200663,0.26201346255528046,-0.45331108470893566
0.13516000000000003,-2.76218905324356,-1.5206047800001536,0.2612562006006774,-0.4590521052225588
0.1368199999999999,-2.7647277503139285,-1.538056916471922,0.2604894117394352,-0.46478919696845244
0.13847999999999974,-2.7672953703461434,-1.5554514732448592,0.2597131029391852,-0.4705218196698995
0.1401399999999996,-2.769891816510681,-1.5727869425081102,0.25892728207978716,-0.4762494145020058
0.14179999999999945,-2.7725169894494015,-1.5900617854899812,0.2581319579842734,-0.4819714039069169
0.1434599999999993,-2.775170787223878,-1.6072744321318473,0.2573271404500933,-0.48768719141740413
0.14511999999999917,-2.777853105263204,-1.6244232807775691,0.2565128402806431,-0.49339616148939786
0.14677999999999902,-2.7805638363112912,-1.6415066978795563,0.2556890693170658,-0.49909767934406296
0.14843999999999888,-2.783302870373703,-1.658523017722656,0.25485584047030524,-0.5047910908200296
0.15009999999999873,-2.7860700946640344,-1.6754705421670784,0.25401316775339605,-0.5104757222364106
0.1517699999999988,-2.788882317532558,-1.6924489918107428,0.2531559046343798,-0.5161850378251637
0.15343999999999886,-2.7917228335636763,-1.7093542671029862,0.25228911546805477,-0.521884039417043
0.15510999999999892,-2.794591519033133,-1.7261845383242989,0.25141281809924626,-0.5275719805592066
0.15677999999999898,-2.7974882471326334,-1.7429379417080553,0.2505270316364054,-0.533248094366491
0.15844999999999904,-2.80041288791286,-1.7596125792940893,0.24963177648579565,-0.538911593446417
0.1601199999999991,-2.8033653082262644,-1.7762065188103093,0.24872707438579222,-0.5445616698396744
0.16178999999999916,-2.806345371669691,-1.7927177935838534,0.24781294844126686,-0.5501974949768553
0.16345999999999922,-2.8093529385268723,-1.8091444024833094,0.2468894231580311,-0.5558182196522227
0.16512999999999928,-2.8123878657108596,-1.8254843098935523,0.2459565244773086,-0.5614229740153056
0.16679999999999934,-2.815450006706436,-1.8417354457247717,0.24501427981020577,-0.5670108675811305
0.16847999999999927,-2.8185577909520854,-1.857992195475787,0.24405699209576223,-0.5726142878880289
0.1701599999999992,-2.821692807762542,-1.8741547998732855,0.2430903064054351,-0.5781987742691715
0.17183999999999913,-2.8248548971198586,-1.8902210462395672,0.2421142553596874,-0.5837633572025483
0.17351999999999906,-2.8280438952594604,-1.9061886870113922,0.2411288732253353,-0.5893070462838021
0.175199999999999,-2.831259634611706,-1.9220554399509786,0.2401341959505335,-0.594828830345816
0.17687999999999893,-2.8345019437438452,-1.9378189884025523,0.23913026119953912,-0.6003276776027616
0.17855999999999886,-2.8377706473024435,-1.9534769815961537,0.2381171083872124,-0.605802535819468
0.1802399999999988,-2.8410655659563604,-1.969027035000395,0.2370947787132111,-0.6112523325069664
0.18191999999999872,-2.8443865163403625,-1.984466730725852,0.23606331519583382,-0.6166759751450581
0.18359999999999865,-2.847733310999456,-1.999793617980749,0.23502276270546593,-0.622072351432738
0.1852599999999987,-2.851065460033759,-2.0148248110185336,0.23398571616685057,-0.6273765965574443
0.18691999999999875,-2.8544224657453356,-2.0297410150864126,0.23293988836058896,-0.6326520054198472
0.1885799999999988,-2.857804135218231,-2.0445397743550764,0.2318853280888561,-0.637897449775469
0.19023999999999885,-2.8612102714355565,-2.0592186038822238,0.23082208604139476,-0.6431117837511358
0.1918999999999989,-2.864640673231733,-2.073774990308751,0.2297502148244701,-0.6482938442223133
0.19355999999999896,-2.8680951352459374,-2.088206392612127,0.22866976898917293,-0.6534424512206021
0.195219999999999,-2.8715734478768447,-2.1025102429181914,0.227580805059021,-0.6585564083719944
0.19687999999999906,-2.8750753972387706,-2.1166839473725387,0.226483381556807,-0.6636345033664627
0.1985399999999991,-2.8786007651193106,-2.13072488707258,0.2253775590306405,-0.6686755084594068
0.20019999999999916,-2.8821493289385733,-2.144630419061289,0.22426340007913087,-0.6736781810054427
0.20186999999999922,-2.8857424461014607,-2.1584803900541467,0.2231341828141377,-0.6786710395835373
0.20353999999999928,-2.889358574128305,-2.1721878820439917,0.22199666183142694,-0.6836225363445639
0.20520999999999934,-2.892997472779139,-2.185750137075383,0.22085090729498646,-0.6885313640151518
0.2068799999999994,-2.8966588971914082,-2.1991643772901663,0.2196969915626767,-0.6933962025937898
0.20854999999999946,-2.900342597847853,-2.2124278062823413,0.21853498920688813,-0.6982157200736464
0.21021999999999952,-2.904048320546715,-2.225537610520875,0.21736497703396201,-0.7029885732007324
0.21188999999999958,-2.907775806374371,-2.2384909608406662,0.2161870341023154,-0.7077134082674708
0.21355999999999964,-2.911524791680518,-2.25128501400172,0.21500124173921137,-0.7123888619416573
0.2152299999999997,-2.915295008056018,-2.2639169143164226,0.21380768355611543,-0.7170135621307119
0.21689999999999976,-2.9190861823135155,-2.276383795344643,0.21260644546257926,-0.7215861288810327
0.21856999999999965,-2.9228980364709427,-2.288682781656206,0.21139761567859347,-0.7261051753121736
0.22023999999999955,-2.9267302877380255,-2.300810990660102,0.21018128474535108,-0.7305693085854714
0.22190999999999944,-2.930582648505898,-2.3127655344995954,0.20895754553436557,-0.734977130906647
0.22357999999999933,-2.9344548263399357,-2.324543522012212,0.2077264932548863,-0.7393272405618074
0.22524999999999923,-2.9383465239759157,-2.33614206075337,0.20648822545955617,-0.7436182329861688
0.22691999999999912,-2.9422574393196097,-2.347558259082211,0.20524284204825816,-0.7478487018647109
0.22858999999999902,-2.94618726544991,-2.358789228307976,0.2039904452700974,-0.7520172402638674
0.2302599999999989,-2.950135690625589,-2.3698320848950476,0.20273113972346826,-0.7561224417932416
0.2319299999999988,-2.954102398295788,-2.3806839527245636,0.20146503235415697,-0.7601629017962237
0.2335999999999987,-2.958087067114332,-2.3913419654102737,0.20019223245143275,-0.7641372185682727
0.23525999999999875,-2.962065353235522,-2.4017412171806822,0.1989205319660771,-0.7680208044966462
0.2369199999999988,-2.966060738865045,-2.411943319144801,0.19764244106362325,-0.771836288925842
0.23857999999999885,-2.9700728944305474,-2.4219454987535913,0.19635807392286866,-0.7755823112421881
0.2402399999999989,-2.9741014857726706,-2.431745002449941,0.1950675469748786,-0.7792575186978661
0.24189999999999895,-2.9781461741786184,-2.4413390981371075,0.19377097888885703,-0.782860567705149
0.243559999999999,-2.9822066164198553,-2.4507250776814913,0.19246849055585472,-0.7863901251478497
0.24521999999999905,-2.9862824647939834,-2.459900259446004,0.19116020507028725,-0.789844869708026
0.2468799999999991,-2.9903733671708492,-2.468861990850089,0.1898462477092395,-0.7932234932058876
0.24853999999999915,-2.9944789670429164,-2.477607650952258,0.18852674590953636,-0.7965247019507464
0.2501999999999992,-2.998598903579944,-2.486134653050813,0.18720182924256332,-0.7997472181007634
0.2518799999999993,-3.002782701484082,-2.4945391581697396,0.1858555712174954,-0.8029271506860308
0.25355999999999945,-3.006980426813469,-2.502714491158493,0.18450404059701914,-0.8060239045455646
0.2552399999999996,-3.011191692404043,-2.510658094280775,0.18314737818820462,-0.8090362132800277
0.2569199999999997,-3.0154161068338308,-2.51836745679346,0.1817857269070529,-0.8119628328989058
0.25859999999999983,-3.019653274504232,-2.5258401177287495,0.1804192317396295,-0.8148025432716225
0.26027999999999996,-3.0239027957259728,-2.53307366866406,0.1790480397007655,-0.8175541495716317
0.2619600000000001,-3.0281642668096946,-2.5400657564738123,0.17767229979034038,-0.8202164837104765
0.2636400000000002,-3.0324372801611483,-2.5468140860571906,0.17629216294716665,-0.8227884057587541
0.26532000000000033,-3.036721424380948,-2.553316423035854,0.17490778200049986,-0.8252688053508893
0.26700000000000046,-3.0410162843688244,-2.5595705964155315,0.1735193116192049,-0.8276566030705867
0.2686600000000003,-3.0452701306422103,-2.5655045061142316,0.1721435070060954,-0.8299239953015524
0.2703200000000001,-3.049533623035271,-2.571192105440228,0.17076401508957137,-0.8320989770670257
0.27197999999999994,-3.053806351088564,-2.576631497173262,0.16938099005969934,-0.834180603785974
0.2736399999999998,-3.0580879012510866,-2.581820854144915,0.16799458764607,-0.8361679653888965
0.2752999999999996,-3.062377856998444,-2.5867584214909494,0.16660496505953287,-0.8380601874883612
0.27695999999999943,-3.066675798954693,-2.591442518836252,0.16521228093201673,-0.8398564325142001
0.27861999999999926,-3.0709813050177623,-2.5958715424069614,0.1638166952544969,-0.8415559008105868
0.2802799999999991,-3.0752939504883057,-2.6000439670644817,0.16241836931317502,-0.8431578316922778
0.2819399999999989,-3.0796133082018704,-2.603958348256209,0.16101746562394095,-0.8446615044573664
0.28359999999999874,-3.083938948664227,-2.607613323877954,0.15961414786519168,-0.8460662393539814
0.2852699999999988,-3.088296550364145,-2.611027271206224,0.15820010705730633,-0.8473789579415206
0.28693999999999886,-3.0926596322045254,-2.614176171539684,0.1567839585845167,-0.8485902916637713
0.2886099999999989,-3.097027750605932,-2.617058901071225,0.15536587223443266,-0.8496996792986029
0.290279999999999,-3.101400460188038,-2.619674427094221,0.15394601869410524,-0.8507066050183338
0.29194999999999904,-3.105777313922942,-2.622021809394439,0.15252456947360685,-0.8516105991115622
0.2936199999999991,-3.1101578632907114,-2.6241002015236425,0.15110169682845695,-0.8524112386435538
0.29528999999999916,-3.1145416584369485,-2.6259088519513614,0.14967757368099754,-0.8531081480533825
0.2969599999999992,-3.11892824833218,-2.6274471050916217,0.14825237354082527,-0.8537009996861826
0.2986299999999993,-3.1233171809328524,-2.6287144022017506,0.14682627042438998,-0.8541895142590425
0.30029999999999935,-3.127708003343719,-2.6297102821507328,0.14539943877387151,-0.8545734612592468
0.3019699999999994,-3.1321002619814022,-2.6304343820549447,0.1439720533754488,-0.8548526592737561
0.30363999999999947,-3.1364935027389045,-2.6308864377794627,0.14254428927707657,-0.8550269762490044
0.3053099999999995,-3.14088727115084,-2.631066284303521,0.1411163217058872,-0.8550963296802853
0.3069799999999996,3.137904194620417,-2.6309738559490756,0.1396883259853352,-0.8550606867301945
0.30864999999999965,3.1335107349003932,-2.630609186471826,0.13826047745220363,-0.854920064275796
0.3103199999999997,3.129118111413997,-2.6299724090144303,0.13683295137359114,-0.8546745288843788
0.31198999999999977,3.124726778401334,-2.6290637559220493,0.13540592286399922,-0.8543241967178724
0.31365999999999983,3.120337189631872,-2.6278835584207485,0.13397956680263845,-0.8538692333661911
0.3153299999999999,3.1159497982396767,-2.6264322461596694,0.13255405775107212,-0.8533098536099732
0.31699999999999995,3.111565056559518,-2.6247103466182784,0.13112956987131452,-0.8526463211133835
0.3186599999999998,3.107209643212567,-2.6227312137524845,0.1297147956584939,-0.8518838514455505
0.3203199999999996,3.1028577361368392,-2.620486049180908,0.1283013720625426,-0.8510191346996694
0.32197999999999943,3.0985097762931924,-2.617975653588912,0.126889468487922,-0.8500525709640084
0.32363999999999926,3.094166203236887,-2.6152009195901593,0.12547925363679524,-0.8489846061943488
0.3252999999999991,3.089827454965964,-2.612162830530041,0.12407089543339377,-0.8478157315935669
0.3269599999999989,3.0854939677717046,-2.6088624591737983,0.12266456094946367,-0.8465464829313407
0.32861999999999875,3.081166176091357,-2.605300966282914,0.12126041633088969,-0.8451774398058077
0.3302799999999986,3.0768445123633215,-2.6014795990836226,0.11985862672559172,-0.8437092248491463
0.3319399999999984,3.07252940688496,-2.5973996896316542,0.11845935621278517,-0.8421425028791819
0.33359999999999823,3.0682212876732073,-2.59306265307756,0.11706276773369288,-0.8404779799992468
0.33527999999999836,3.063868811497244,-2.588413100363726,0.1156522489138522,-0.8386945902893512
0.3369599999999985,3.059524365366863,-2.5835033541339043,0.11424480912322367,-0.8368126082030297
