time,theta,thetadot,x,xdot
0.0016699999999999818,1.7020210446939927,0.025203237804402145,1.0000008948698218,0.0010717863210105037
0.0033399999999999637,1.702083458262411,0.0499750972265387,1.0000000005593643,0.0000010106982795759448
0.005009999999999945,1.702187960990902,0.0751783351807363,1.0000008960080786,0.0010738311054479918
0.006679999999999927,1.7023338312106597,0.09994950104704949,1.0000000022373627,0.0000040426792951670995
0.00834999999999991,1.7025217899050433,0.1251524662831688,1.0000008982844781,0.001077920536336774
0.010019999999999892,1.7027511133208575,0.14992210983367094,1.0000000050337117,0.000009095601032908318
0.011689999999999874,1.7030225240631904,0.1751245274317026,1.000000901698792,0.0010840543366225845
0.013359999999999856,1.7033352953634073,0.19989181669285325,1.000000008947937,0.00001616889165423699
0.015029999999999839,1.7036901523708334,0.22509340763410676,1.0000009062506745,0.001092232088018227
0.01669999999999982,1.7040863643683357,0.2498575053115233,1.0000000139793712,0.000025261746770586504
0.018369999999999893,1.7045246599705814,0.27505798443318774,1.00000091193966,0.0011024532277535038
0.020039999999999968,1.70500430357677,0.2998180458044893,1.000000020127149,0.00003637312562368043
0.021710000000000042,1.7055260281867166,0.3250171197559961,1.0000009187651582,0.0011147170442361361
0.023380000000000116,1.7060890923785699,0.3497722905640777,1.000000027390204,0.00004950174616705845
0.02505000000000019,1.706694234455912,0.3749696557659884,1.0000009267264494,0.0011290226716199115
0.026720000000000264,1.7073407062361352,0.3997190701130497,1.0000000357672616,0.00006464607904316114
0.02839000000000034,1.7080292522441316,0.4249144107191725,1.0000009358226778,0.0011453690832728773
0.030060000000000413,1.7087591165944018,0.44965718896181056,1.0000000452568325,0.00008180434044882104
0.03173000000000049,1.7095310509497326,0.47485017482528363,1.0000009460528443,0.0011637550841391096
0.03340000000000056,1.710344290777053,0.49958542147099505,1.0000000558572044,0.00010097448388053567
0.035070000000000545,1.7111995957927952,0.524775706115079,1.0000009574157973,0.00118417930198478
0.03674000000000053,1.7120961918689728,0.5495025077205247,1.0000000675664336,0.0001221541907492447
0.03841000000000051,1.71303484769071,0.5746897263148776,1.0000009699102244,0.0012066401775185315
0.0400800000000005,1.7140147785849722,0.599407149386297,1.0000000803823341,0.00014534085985258983
0.04175000000000048,1.715036763120054,0.6245909167295055,1.0000009835346406,0.0012311359533728773
0.043420000000000465,1.7161000051248227,0.6492980056256722,1.000000094302467,0.00017053159569070404
0.04509000000000045,1.717205293964796,0.6744779141348665,1.0000009982873774,0.0012576646619338802
0.04676000000000043,1.7183518210146382,0.699173688973032,1.0000001093241273,0.00019772319560955993
0.04843000000000042,1.7195403873508697,0.7243493066814207,1.0000010141665696,0.0012862241120018313
0.0501000000000004,1.7207701709346497,0.7490327612467086,1.000000125444332,0.00022691213575362526
0.05176000000000035,1.722034244187693,0.774052265258143,1.00000101804871,0.0013074746884048794
0.053420000000000294,1.7233390212183564,0.7985752941813031,1.0000001423496134,0.00025771686626529307
0.05508000000000024,1.724685317275762,0.8235896139369359,1.0000010358436504,0.001339686145249174
0.056740000000000186,1.7260722930602332,0.8480984110554917,1.0000001603207207,0.0002904754112525061
0.05840000000000013,1.727500777974686,0.8731070381337263,1.0000010547315392,0.0013738841416715778
0.06006000000000008,1.7289699167516654,0.8976005262454722,1.0000001793538629,0.0003251833007459411
0.061720000000000025,1.7304805538383845,0.9226029207050503,1.0000010747096606,0.0014100655132474103
0.06337999999999996,1.7320318170515918,0.9470799888017809,1.0000001994449177,0.00036183568689750656
0.0650399999999999,1.733624566773915,0.9720755772902532,1.0000010957750318,0.0014482267963106049
0.06669999999999984,1.7352579129543797,0.9965350785540664,1.000000220589414,0.00040042732435360763
0.06836999999999992,1.7369429487943466,1.0216750239143022,1.0000011328655394,0.0014998668151448681
0.07003999999999999,1.7386690374834224,1.0462617464645276,1.0000002431880854,0.0004414468002964542
0.07171000000000007,1.7404370888997749,1.0713935597496402,1.0000011565254439,0.001542498521556355
0.07338000000000014,1.7422461587667069,1.0959600332131814,1.0000002668553865,0.00048442866771610687
0.07505000000000021,1.7440971760061237,1.1210830183320193,1.0000011812880818,0.0015871335736714514
0.07672000000000029,1.7459891751085246,1.145627951933723,1.0000002915855004,0.0005293661892511053
0.07839000000000036,1.7479231049611779,1.1707413709610108,1.0000012071490787,0.001633766977853689
0.08006000000000044,1.7498979778240236,1.1952634290898112,1.0000003173721617,0.0005762521226480627
0.08173000000000051,1.751914763473156,1.2203665003973792,1.0000012341036773,0.0016823933146196664
0.08340000000000058,1.7539724509350372,1.2448643005850244,1.0000003442086318,0.0006250786931985342
0.08508000000000052,1.756084732124073,1.2701085831090975,1.0000012795481583,0.0017472829513228638
0.08676000000000045,1.7582383585853287,1.2947250691306436,1.0000003725921947,0.0006764501749840447
0.08844000000000038,1.76043436401398,1.3199572075152477,1.000001309209521,0.0018005238244471545
0.09012000000000031,1.7626716676414835,1.3445461382886663,1.0000004020353677,0.0007297795422484688
0.09180000000000024,1.764951327437798,1.3697651939828674,1.0000013399737868,0.0018557743264440497
0.09348000000000017,1.7672722356896842,1.3943250043205808,1.00000043252957,0.0007850569958335384
0.0951600000000001,1.7696354756049415,1.419529986575228,1.0000013718342071,0.0019130268599514323
0.09684000000000004,1.7720399114672154,1.4440590551196197,1.0000004640656153,0.0008422720563995483
0.09851999999999997,1.7744866526887726,1.469248919180587,1.000001404783495,0.001972273226860809
0.1001999999999999,1.7769745344848529,1.4937455663929657,1.0000004966336808,0.0009014135267776282
0.10185999999999994,1.7794743181240604,1.518612660374387,1.0000013984968095,0.0019981953451056866
0.10351999999999997,1.7820142233784917,1.5427908724423476,1.000000529041337,0.0009610245087701454
0.10518000000000001,1.784595364570903,1.5676408307220022,1.000001432339011,0.002059871783844563
0.10684000000000005,1.7872165684593102,1.5917841185669062,1.0000005624127386,0.0010224708847387377
0.10850000000000008,1.7898789768901961,1.6166157613045027,1.0000014671945248,0.002123443625190851
0.11016000000000012,1.7925813860788324,1.6407223315241037,1.0000005967366776,0.001085739735737138
0.11182000000000016,1.7953249663153226,1.665534420787048,1.000001503054136,0.002188900368712821
0.11348000000000019,1.7981084822474434,1.6896024171238238,1.0000006320012234,0.0011508173063082328
0.11514000000000023,1.8009331335340708,1.7143936553355568,1.0000015399079667,0.002256230747823501
0.11680000000000026,1.8037976522226102,1.7384211568880512,1.0000006681936877,0.0012176889588173495
0.11847000000000024,1.8067209009458993,1.763344680949855,1.0000016011074684,0.0023469834176656473
0.12014000000000022,1.809684417308384,1.7874688477935843,1.0000007059695943,0.001287164028174958
0.1218100000000002,1.8126894954629111,1.8123685916847856,1.0000016406374757,0.002418904059264286
0.12348000000000017,1.8157347645469972,1.8364475355247243,1.000000744666954,0.00135843243978477
0.12515000000000015,1.8188215519433732,1.8613219907409868,1.0000016811514307,0.0024926932538567002
0.12682000000000013,1.8219484498932663,1.8853535429402801,1.000000784270088,0.0014314761500855673
0.1284900000000001,1.8251168199970644,1.910201133935457,1.0000017226360491,0.0025683358314468278
0.13016000000000008,1.82832521648955,1.9341830525345476,1.000000824762369,0.0015062759900085106
0.13183000000000006,1.8315750361846175,1.959002135328764,1.0000017650771602,0.0026458155662330554
0.13350000000000004,1.834864794189689,1.982932103350965,1.0000008661261783,0.0015828116033182538
0.13517,1.838195923536673,2.0077209641866944,1.0000018084596625,0.0027251151139532177
0.13684,1.8415668990734446,2.0315965879805,1.0000009083428585,0.0016610613815740485
0.13850999999999997,1.8449791910637008,2.056353442029011,1.000001852767477,0.002806215945760123
0.14017999999999994,1.8484312329517785,2.0801722496495123,1.0000009513926662,0.001741002395514786
0.14184999999999992,1.8519245332568326,2.1048952397701286,1.0000018979835006,0.0028890982784201616
0.1435199999999999,1.8554574828633188,2.1286546794019996,1.0000009952547242,0.001822610322659999
0.14518999999999987,1.8590316295800662,2.153341874956652,1.0000019440895564,0.0029737410006146084
0.14685999999999985,1.8626453205623863,2.1770393133812553,1.0000010399069696,0.0019058593709068133
0.14852999999999983,1.866300143954222,2.2016887091068624,1.0000019910663425,0.00306012159510995
0.1501999999999998,1.8699944019989707,2.225321430216118,1.0000010853261023,0.0019907221978904656
0.15186999999999987,1.8737297242330506,2.2499309451573617,1.0000020388933795,0.003148216056550214
0.15353999999999993,1.8775043667910665,2.27349614851712,1.0000011314875303,0.002077169825863495
0.15521,1.8813200016719136,2.2980636250222144,1.0000020875489564,0.00323799880460856
0.15688000000000005,1.8851748376897948,2.321558424487943,1.000001178365314,0.002165171551836073
0.1585500000000001,1.889070590389473,2.346081627270044,1.0000021370100736,0.003329442592227121
0.16022000000000017,1.893005420037769,2.369503049657764,1.0000012259321083,0.002254694852707531
0.16189000000000023,1.896981086822855,2.3939796649246583,1.0000021872523848,0.003422518408650265
0.1635600000000003,1.9009957012211678,2.417324648740111,1.0000012741591033,0.002345705285106377
0.16523000000000035,1.9050510691767686,2.441752283394857,1.0000022382501372,0.003517195376952039
0.1669000000000004,1.9091452501160138,2.465017677624011,1.0000013230159628,0.002438166379644012
0.1685700000000004,1.9132800968670811,2.4893938585391973,1.0000022899761092,0.003613440645738334
0.17024000000000036,1.9174536165291696,2.512576421503258,1.0000013724707604,0.0025320395292753256
0.17191000000000034,1.921667709959378,2.5368985948715586,1.0000023424015454,0.0037112192746948554
0.17358000000000032,1.925920330634592,2.559994993149768,1.000001422489914,0.0026272838714480624
0.1752500000000003,1.9302134286030568,2.584260523913428,1.0000023954960913,0.0038104941136314022
0.17692000000000027,1.9345449024053984,2.6072673313369843,1.000001473038119,0.002723856163711981
0.17859000000000025,1.9389167524615223,2.6314735026988814,1.0000024492277235,0.0039112256746717195
0.18026000000000023,1.9433268210423331,2.6543871994194355,1.0000015240782778,0.0028217106524493166
0.1819300000000002,1.9477771601390796,2.6785312124382985,1.0000025035626803,0.004013371997214839
0.18360000000000018,1.952265554399235,2.701348184074551,1.000001575571428,0.002920798934379328
0.18526000000000012,1.956766855155691,2.725262733400766,1.0000025175089111,0.004074407309015888
0.18692000000000006,1.9613056233421897,2.747863674692615,1.0000016265980076,0.0030199285901277876
0.18858,1.9658839243751758,2.7717105126525428,1.0000025718986512,0.004177926455320624
0.19023999999999994,1.9704995209604823,2.794209001991322,1.0000016779873844,0.0031201694320875948
0.19189999999999988,1.975154531071604,2.817985124335293,1.000002626765794,0.004282693310296509
0.19355999999999982,1.9798466585146886,2.8403773422819696,1.0000017296959687,0.00322146566900652
0.19521999999999975,1.9845780750346298,2.864079663663435,1.0000026820700476,0.004388655735229455
0.1968799999999997,1.989346424171802,2.8863616962299647,1.0000017816780775,0.003323758327296927
0.19853999999999963,1.9941539326791866,2.9099870502494816,1.0000027377690666,0.004495758419368338
0.20019999999999957,1.998998182442741,2.932154888511605,1.000001833885854,0.0034269850775086423
0.20186999999999963,2.003911014326039,2.955868493097489,1.000002840101547,0.004652693531846346
0.2035399999999997,2.0088607856831424,2.9780239714892827,1.0000018871508751,0.003532255288918821
0.20520999999999975,2.0138499549112017,3.0016537021742637,1.0000028975533382,0.004763309860956761
0.20687999999999981,2.018875853582714,3.0236844933058205,1.0000019405387384,0.003638334700281881
0.20854999999999987,2.0239410023263154,3.0472268948387002,1.000002955268399,0.004874899902480618
0.21021999999999993,2.02904266318111,3.069128608805555,1.000001993992787,0.00374514785075279
0.21189,2.0341834204269196,3.0925801443515897,1.0000030131938185,0.004987392117928396
0.21356000000000006,2.0393604649937336,3.1143482931344644,1.0000020474537599,0.00385261500581144
0.21523000000000012,2.044576446260765,3.1377053448352235,1.0000030712741064,0.005100710668983911
0.21690000000000018,2.0498284824454474,3.1593353424367314,1.0000021008596969,0.0039606519274726915
0.21857000000000015,2.0551192895039887,3.1825942120762116,1.0000031294510967,0.005214775177392503
0.22024000000000013,2.060445911309436,3.2040813747805506,1.0000021541458461,0.004069169633643193
0.2219100000000001,2.0658111319028674,3.227238284558576,1.0000031876638467,0.00532950047308362
0.22358000000000008,2.0712119191520877,3.248577831318996,1.0000022072445656,0.004178074146432226
0.22525000000000006,2.0766511267220307,3.2716289247326573,1.000003245848534,0.005444796330263398
0.22692000000000004,2.0821256447847887,3.2928159776916326,1.000002260085227,0.004287266229280214
0.22859000000000002,2.0876383982000437,3.315757320525299,1.0000033039383522,0.005560567191284409
0.23026,2.093186197723543,3.3367869056725246,1.000002312594115,0.0043966411128367935
0.23192999999999997,2.098772041013273,3.3596144870966445,1.0000033618634032,0.005676711878148862
0.23359999999999995,2.1043926576573493,3.3804815350701527,1.0000023646943286,0.004506088209601772
0.23526999999999992,2.1100511197489786,3.403191268848786,1.0000034195505891,0.0057931232915920065
0.2369399999999999,2.1157440739262796,3.4238906158846842,1.0000024163056793,0.004615490817439092
0.23860999999999988,2.1214746683885863,3.4464783416913813,1.0000034769235013,0.005909688097785066
0.24027999999999985,2.127239465010224,3.4670047307279654,1.0000024673445902,0.00472472581218762
0.24194999999999983,2.1330416898021087,3.4894662155692866,1.000003533902309,0.0060262864028109795
0.2436199999999998,2.138877818029278,3.5098142975115194,1.000002517723996,0.004833663329725518
0.24528999999999979,2.144751155254701,3.532145237257138,1.0000035904036462,0.0061427914151997165
0.24695999999999976,2.1506580882567663,3.552309572407791,1.0000025673532413,0.004942166437999142
0.24862999999999974,2.156602003926347,3.574505593425776,1.000003646340499,0.006259069096965738
0.25029999999999974,2.162579198645899,3.594480653089843,1.000002616137983,0.005050090799705519
0.25196999999999975,2.168593142445686,3.6165373139853423,1.0000037016220922,0.0063749778037706616
0.25363999999999975,2.1746400393710816,3.6363174822546855,1.0000026639800923,0.005157284326521688
0.25530999999999976,2.1807234444389882,3.6582302757098613,1.000003756153776,0.006490367915042589
0.25697999999999976,2.186839467384895,3.6778098514354656,1.000002710777561,0.005263586826007782
0.25864999999999977,2.192991750095322,3.6995742061481596,1.0000038098369157,0.006605081455122199
0.2603199999999998,2.199176305991777,3.7189474051077838,1.0000027564244114,0.005368829642575972
0.2619899999999998,2.2053968657489254,3.740558687826004,1.000003862568782,0.00671895170677822
0.2636599999999998,2.2116493444394365,3.7597196450955166,1.0000028008106094,0.00547283529421771
0.2653299999999998,2.21793756347983,3.7811731627444756,1.0000039142424442,0.006831802818744173
0.2669999999999998,2.224257337529046,3.8001159352816822,1.0000028438219852,0.005575417107019875
0.2686699999999998,2.2306125807337702,3.821406937179737,1.0000039647466685,0.006943449409277529
0.2703399999999998,2.236999005245238,3.8401255066300966,1.0000028853401601,0.00567637884987956
0.2720099999999998,2.243420619962416,3.8612491867896095,1.0000040139658208,0.007053696168135417
0.2736799999999998,2.2498730324069545,3.879737462523848,1.0000029252424825,0.005775514372250172
0.2753499999999998,2.256360348284969,3.900688962032644,1.0000040617797767,0.007162337459800378
0.2770199999999998,2.2628780683401786,3.9189407844269764,1.0000029634019743,0.005872607248221466
0.2786899999999998,2.2694303971721466,3.939715193905778,1.0000041080638389,0.007269156931278987
0.28035999999999983,2.2760127265735823,3.9577243378761633,1.0000029996872886,0.0059674304307550975
0.28202999999999984,2.28262936215359,3.9783167000071264,1.000004152688665,0.007373927128338224
0.28369999999999984,2.2892755845581036,3.9960768788097756,1.0000030339626824,0.006059745920467969
0.2853599999999999,2.29591563870841,4.016286067038396,1.0000041211636754,0.0073948974180837145
0.28701999999999994,2.3025846322420214,4.033761163567117,1.0000030657770602,0.00614855233196885
0.28868,2.309286777635148,4.053778819585704,1.0000041610846744,0.007493349806916402
0.29034000000000004,2.316017438927364,4.070997153706637,1.0000030953597492,0.006234405599563599
0.2920000000000001,2.322780928315146,4.090818249597032,1.0000041989729211,0.0075890435490195245
0.29366000000000014,2.329572500092394,4.107773527545917,1.0000031225663484,0.006317039772729146
0.2953200000000002,2.3363965682186456,4.127392998891872,1.0000042346844162,0.007681709885775967
0.29698000000000024,2.343248275154133,4.144078884648077,1.0000031472482802,0.006396177223120613
0.2986400000000003,2.3501321386791862,4.163491633320323,1.0000042680705603,0.007771067740433674
0.30030000000000034,2.3570431873263673,4.179901753724969,1.0000031692528666,0.006471528479106061
0.30198000000000036,2.364070030838637,4.199504641827313,1.0000044578497862,0.008030338395551147
0.3036600000000004,2.37112395189719,4.215653329953542,1.0000031884855298,0.006543754059389329
0.3053400000000004,2.3782103758754554,4.235037901372545,1.0000044877507184,0.008114868627443147
0.3070200000000004,2.385323379174821,4.250886817474666,1.0000032045579192,0.0066113936617167995
0.3087000000000004,2.392468514848345,4.270047771063881,1.0000045147297014,0.008195030595214607
0.31038000000000043,2.3996397208366536,4.285590149515223,1.0000032172956315,0.006674105679918338
0.31206000000000045,2.406842680299018,4.304522160390275,1.0000045386099974,0.008270475835530016
0.31374000000000046,2.4140711902940857,4.319751222227274,1.0000032265205978,0.006731535959013282
0.3154200000000005,2.421331066502594,4.338448944695673,1.0000045592104159,0.008340842332412812
0.3171000000000005,2.4286159627038955,4.353357905284846,1.000003232051377,0.0067833180225596625
0.31876000000000043,2.4358443972609587,4.371407552104668,1.0000044100464645,0.008224154435050812
0.32042000000000037,2.4430970499348494,4.386008427273716,1.0000032343460654,0.006828843733374654
0.3220800000000003,2.4503792314634865,4.4038146535683556,1.00000442240866,0.008281070485468786
0.32374000000000025,2.4576851058894857,4.418094220475677,1.000003232782769,0.006868202436020774
0.3254000000000002,2.4650201043534277,4.435651763010912,1.0000044310912353,0.008331951762658432
0.32706000000000013,2.472378260479947,4.449603580950822,1.0000032271830348,0.006901011936448974
0.32872000000000007,2.479765127767516,4.466907169693503,1.0000044359097993,0.00837640504516312
0.33038,2.487174607534163,4.480524824735686,1.000003217366848,0.006926880464085553
0.33203999999999995,2.494612377542126,4.497569185978682,1.0000044366774858,0.008414026534488276
0.3336999999999999,2.50207220497747,4.510846300306456,1.000003203153198,0.006945407576066959
0.33536999999999995,2.5096051709972085,4.527830782274323,1.000004518114589,0.00853742008856817
0.33704,2.517159713182266,4.540733023212135,1.0000031836301748,0.006955842575194007
0.33871000000000007,2.5247421847303086,4.557446689985983,1.0000045104190598,0.00856080763841721
0.3403800000000001,2.5323456436407557,4.569989143850882,1.0000031592237446,0.006957954768152055
0.3420500000000002,2.5399765826739933,4.586426659150908,1.0000044979951481,0.008575955029378657
0.34372000000000025,2.547627910452635,4.5986029757491425,1.000003129748931,0.0069513152163333865
