time,theta,thetadot,x,xdot
0.0016599999999991268,2.864010600773035,0.01277195863865754,0.0000033133649145654617,0.003991994113611716
0.0033199999999982536,2.864042402523755,0.025543232467096885,0.000013253342050663062,0.007983846524654836
0.004979999999997381,2.8640954035469046,0.03831313654886037,0.000029819578515507123,0.011975415444795846
0.006639999999996507,2.8641696010000404,0.05108098569506382,0.0000530114859171906,0.015966558914202587
0.008299999999995634,2.86426499090301,0.06384609433831456,0.00008282824000887938,0.019957134715873036
0.009959999999994761,2.864381568137217,0.07660777640678713,0.00011926878019086597,0.023947000290057887
0.011619999999993889,2.864519326444681,0.08936534519850971,0.00016233180887066412,0.027936012648808413
0.013279999999993016,2.8646782584268857,0.10211811325591429,0.0002120157906813789,0.03192402829068113
0.014939999999992144,2.8648583555434217,0.1148653922407042,0.0002683189515586384,0.035910903115631033
0.01659999999999127,2.865059608110421,0.12760649280909286,0.0003312392776764268,0.03989649234012532
0.01826999999999098,2.8652834090894794,0.14041741451149958,0.0004012134407280486,0.043904646731889124
0.01993999999999069,2.8655285980129594,0.15322068000756223,0.000477879908497719,0.04791120360711602
0.0216099999999904,2.8657951615059263,0.16601558357796994,0.0005612358879985072,0.051916012937192266
0.02327999999999011,2.866083085013627,0.17880141796571095,0.0006512783348342474,0.055918923647488954
0.02494999999998982,2.8663923527988184,0.19157747425028435,0.0007480039513809696,0.05991978353153383
0.02661999999998953,2.8667229479388836,0.20434304172264628,0.0008514091848253538,0.0639184391656175
0.02828999999998924,2.867074852322742,0.21709740776095127,0.0009614902250609653,0.06791473582386967
0.02995999999998895,2.8674480466475507,0.22983985770715115,0.001078243002443084,0.07190851739384166
0.03162999999998866,2.8678425104152034,0.24256967474451457,0.0012016631854030052,0.07589962629263201
0.03329999999998837,2.8682582219286217,0.2552861397761314,0.00133174617792275,0.0798879033835925
0.03496999999998953,2.8686951582878484,0.26798853130447864,0.0014684871168713072,0.08387318789365586
0.036639999999990694,2.8691532953859373,0.280676125312059,0.0016118808692028722,0.08785531733130637
0.03830999999999186,2.8696326079046464,0.29334819514329086,0.00176192202901939,0.09183412740526722
0.03997999999999302,2.8701330693099347,0.30600401138760824,0.0019186049144974406,0.09580945194390957
0.041649999999994185,2.870654651847265,0.3186428417638964,0.002081923564681299,0.09978112281544126
0.04331999999999535,2.871197326536714,0.33126395100632483,0.0022518717361433853,0.1037489698489128
0.04498999999999651,2.8717610631678934,0.3438666007516502,0.0024284428995135065,0.10771282075608254
0.046659999999997676,2.8723458302946847,0.35645004942806524,0.0026116302358783617,0.1116725010541838
0.04832999999999884,2.8729515952297895,0.3690135521456698,0.0028014266330528494,0.11562783398963714
0.05,2.8735783240390966,0.38155636058864206,0.0029978246817247956,0.11957864046275224
0.05166999999999971,2.874225981535873,0.3940777229091801,0.003200816671474612,0.12352473895346104
0.053339999999999416,2.874894531274779,0.4065768836233481,0.003410394586672538,0.12746594544814485
0.05500999999999912,2.8755839355457087,0.4190530835088033,0.0036265501022535542,0.13140207336756812
0.05667999999999883,2.8762941553674626,0.4315055595045968,0.003849274579373626,0.1353329334960007
0.058349999999998535,2.877025150481257,0.4439335446130806,0.004078559060948419,0.1392583339115599
0.06001999999999824,2.8777768793440677,0.45633626780402137,0.00431439426707674,0.1431780799178249
0.06168999999999795,2.878549299121817,0.46871295392100976,0.004556770590350877,0.1470919739767741
0.06335999999999765,2.8793423656824078,0.4810628235902594,0.004805678091056075,0.150999815643096
0.06502999999999737,2.8801560335886047,0.49338509313188855,0.005061106492261507,0.1549014014999262
0.06669999999999708,2.880990256090772,0.5056789744737804,0.005323045174805141,0.15879652509606287
0.0683699999999968,2.8818449851194665,0.517943675068121,0.005591483172175038,0.1626849768847148
0.07003999999999651,2.882720171277898,0.5301783978107126,0.005866409165289667,0.16656654416383657
0.07170999999999622,2.8836157638342526,0.5423823409631666,0.006147811477179956,0.1704410110181064
0.07337999999999593,2.8845317107138913,0.554554698078076,0.006435678067575846,0.1743081582626032
0.07504999999999565,2.8854679584914265,0.5666946579272761,0.006729996527400251,0.17816776338823986
0.07671999999999536,2.8864244523826788,0.5788014044332976,0.0070307540731733955,0.18201960050901125
0.07838999999999507,2.8874011362365253,0.5908741166041223,0.0073379375413306115,0.18586344031111565
0.08005999999999479,2.8883979525266392,0.602911968471351,0.0076515333824567775,0.18969905000400938
0.0817299999999945,2.8894148423431303,0.6149141290318966,0.007971527655440671,0.19352619327345535
0.08339999999999421,2.8904517453840914,0.6268797621933146,0.008297906021552627,0.19734463023662654
0.08506999999999393,2.891508599947055,0.6388080267228878,0.008630653738448964,0.20115411739932684
0.08673999999999364,2.8925853429203707,0.6506980762005805,0.0089697556541068,0.20495440761539155
0.08840999999999336,2.893681909774504,0.6625490589759816,0.00931519620069291,0.20874525004833117
0.09007999999999307,2.8947982345532703,0.6743601181293556,0.009666959388370467,0.21252639013528235
0.09174999999999278,2.8959342498650043,0.6861303914369219,0.010025028799047537,0.21629756955333065
0.0934199999999925,2.897089886873676,0.6978590113404848,0.010389387580071364,0.22005852618827
0.09508999999999221,2.898265075289962,0.7095451049215374,0.010760018437872568,0.2238089941058644
0.09675999999999192,2.8994597433622733,0.7211877938799635,0.011136903631563473,0.2275487035256782
0.09842999999999164,2.900673817867754,0.7327861945174606,0.011520024966494942,0.23127738079754026
0.10009999999999135,2.901907224103256,0.7443394177258137,0.011909363787776128,0.2349947483807099
0.10176999999999106,2.9031598858762986,0.7558465689801407,0.012304900973761761,0.23870052482581
0.10343999999999078,2.90443172549602,0.7673067483372412,0.012706616929511595,0.2423944247595951
0.10510999999999049,2.905722663764131,0.7787190504391721,0.013114491580226852,0.2460761588726212
0.1067799999999902,2.907032619965879,0.7900825645221792,0.013528504364668532,0.24974543390988382
0.10844999999998992,2.9083615118610324,0.8013963744311108,0.013948634228562618,0.2534019526644918
0.11011999999998963,2.909709255674891,0.8126595586394415,0.014374859617997298,0.2570454139744425
0.11178999999998934,2.9110757660893385,0.8238711902750313,0.014807158472817432,0.2606755127225661
0.11345999999998906,2.9124609562339403,0.8350303371517473,0.015245508220021627,0.26429193983970306
0.11512999999998877,2.913864737677099,0.8461360618070731,0.015689885767167358,0.2678943823111818
0.11679999999998848,2.91528702041728,0.8571874215458293,0.016140267495789704,0.2714825231866604
0.11845999999998906,2.9167190313680167,0.8681177903957967,0.01659387880119407,0.2750346874377933
0.12011999999998964,2.918169140722561,0.8789925709298473,0.01705337448716675,0.2785720848516228
0.12177999999999022,2.9196372554240275,0.8898108222323182,0.01751872977338964,0.2820943926674408
0.1234399999999908,2.921123280849554,0.9005715985110164,0.017989919340629264,0.28560128435449933
0.12509999999999138,2.9226271208022663,0.911273949170964,0.018466917324500225,0.2890924296387451
0.12675999999999196,2.924148677503371,0.9219169188947262,0.018949697309275978,0.29256749453315406
0.12841999999999254,2.9256878515843883,0.932499547729426,0.019438232321753006,0.2960261413717209
0.13007999999999312,2.9272445420795328,0.943020871180551,0.01993249482517449,0.29946802884715634
0.1317399999999937,2.928818646418259,0.9534799203126515,0.02043245671321965,0.30289281205234414
0.13339999999999427,2.9304100604179757,0.9638757218570283,0.020938089304065086,0.3063001425256068
0.13506999999999397,2.9320284206601404,0.9742693401377034,0.02145246033302833,0.3097100324596785
0.13673999999999367,2.9336640832736665,0.9845969577700782,0.021972510580022295,0.3131015406386535
0.13840999999999337,2.9353169372001,0.9948575712487572,0.02249820904291204,0.31647430169293644
0.14007999999999307,2.9369868697018378,1.0050501731461485,0.02302952410653503,0.3198279468381499
0.14174999999999277,2.9386737663557008,1.015173752260921,0.023566423537053814,0.32316210394215694
0.14341999999999247,2.9403775110467603,1.0252272937742242,0.024108874476424166,0.32647639759629277
0.14508999999999217,2.942097985962433,1.0352097794137363,0.024656843436985713,0.32977044919083887
0.14675999999999187,2.943835071586857,1.0451201876256049,0.02521029629618216,0.3330438769947699
0.14842999999999157,2.945588646695559,1.0549574937543342,0.025769198291418292,0.3362962962398004
0.15009999999999127,2.9473585883504327,1.0647206702306684,0.02633351401506094,0.3395273192087552
0.15176999999999097,2.9491447718950323,1.0744086867675122,0.02690320740959113,0.34273655532828223
0.15343999999999067,2.950947070950206,1.0840205105639247,0.027478241762914732,0.3459236112659249
0.15510999999999037,2.952765357410071,1.0935551065172098,0.028058579703838838,0.3490880910315639
0.15677999999999007,2.9545995014383553,1.1030114374431261,0.028644183197721225,0.3522295960832375
0.15844999999998977,2.9564493714651077,1.1123884643042214,0.02923501354230018,0.35534772543734183
0.16011999999998947,2.958314834183802,1.1216851464462967,0.029831031363712027,0.3584420757832102
0.16178999999998916,2.9601957545488395,1.1309004418429895,0.03043219661270364,0.3615122416020646
0.16345999999998886,2.962091995773466,1.1400333073484614,0.031038468561047264,0.3645578152903277
0.16512999999998856,2.96400341932812,1.1490826989581586,0.0316498057981649,0.3675783872872795
0.16679999999998826,2.9659298849392233,1.1580475720776124,0.03226616622796945,0.37057354620703503
0.16845999999998884,2.967859581584169,1.1668739689908656,0.03288377172565404,0.37352517621932163
0.17011999999998942,2.96980385916848,1.1756147978720273,0.03350625546784109,0.3764508812351637
0.17177999999999,2.97176257479757,1.1842690326996246,0.0341335740800896,0.3793502526682205
0.17343999999999057,2.9737355838740704,1.1928356479997642,0.034765683508666864,0.38222288070549926
0.17509999999999115,2.9757227400989867,1.2013136191449654,0.03540253901863492,0.3850683544558323
0.17675999999999173,2.977723895473357,1.2097019226603138,0.036044095192186716,0.38788626210228294
0.1784199999999923,2.979738900300423,1.2179995365368226,0.03669030592723853,0.3906761910584192
0.18007999999999288,2.9817676031883296,1.226205440551881,0.037341124436284935,0.39343772812839045
0.18173999999999346,2.983809851053362,1.2343186165966546,0.03799650324552263,0.3961704596707331
0.18339999999999404,2.985865489123728,1.242338049010291,0.0386563941942492,0.39887397176582845
0.18506999999999374,2.987946863808405,1.25031017475415,0.03932476399313178,0.4015638674554574
0.18673999999999344,2.990041471149635,1.2581853708312098,0.0399976005815504,0.4042233500809793
0.18840999999999314,2.992149148418889,1.2659626127347914,0.0406748528179107,0.40685199840973857
0.19007999999999284,2.994269731179955,1.2736408799058172,0.04135646885750017,0.4094493916481088
0.19174999999999254,2.9964030532958446,1.2812191561096595,0.04204239615337949,0.4120151096314761
0.19341999999999224,2.9985489469363356,1.2886964298188612,0.04273258145759387,0.4145487330173789
0.19508999999999194,3.000707242586155,1.2960716946014892,0.04342697082270937,0.4170498434816762
0.19675999999999164,3.002877769053817,1.3033439495148598,0.044125509603679364,0.4195180239176082
0.19842999999999134,3.0050603534811215,1.3105121995043703,0.0448281424600457,0.42195285863760784
0.20009999999999104,3.007254821353325,1.317575455807153,0.045534813358479066,0.4243539335777143
0.20177999999999133,3.009474242044047,1.324574075563021,0.04624973285437463,0.4267349058245878
0.20345999999999162,3.011705329631726,1.3314644540589902,0.04696862304188295,0.4290808779891952
0.2051399999999919,3.0139479014426747,1.3382456064613402,0.047691424771681104,0.43139143477812414
0.2068199999999922,3.0162017731554673,1.3449165560821024,0.048418078198844396,0.43366616342421666
0.2084999999999925,3.018466758814989,1.3514763348150078,0.04914852278727629,0.4359046539080707
0.2101799999999928,3.0207426708472234,1.357923983574398,0.04988269731451188,0.4381064991811694
0.21185999999999308,3.023029320074775,1.3642585527367093,0.05062053987689735,0.4402712953904366
0.21353999999999337,3.0253265157331395,1.3704791025841419,0.0513619878951479,0.4423986421040122
0.21521999999999367,3.02763406548772,1.3765847037500982,0.05210697812028568,0.44448814253803404
0.21689999999999396,3.029951775451591,1.3825744376659785,0.05285544663995955,0.4465394037842085
0.21856999999999366,3.0322655659030993,1.3884127861593576,0.05360284342410181,0.44854017211630665
0.22023999999999336,3.0345890094341668,1.394134866338337,0.05435354935672511,0.45050239327921227
0.22190999999999306,3.036921911150322,1.3997398102898846,0.055107499751792265,0.4524256940637726
0.22357999999999276,3.039264074717877,1.4052267623886856,0.055864629303878394,0.4543097059343589
0.22524999999999246,3.0416153023848134,1.4105948797309709,0.05662487209616056,0.45615406525023156
0.22691999999999216,3.0439753950023856,1.4158433325670479,0.057388161608776696,0.45795841348631
0.22858999999999186,3.04634415204745,1.420971304732078,0.05815443072755254,0.45972239745310917
0.23025999999999155,3.0487213716455104,1.4259779940746353,0.05892361175309499,0.46144566951560084
0.23192999999999125,3.051106850594474,1.4308626128825768,0.059695636410249886,0.4631278878107567
0.23359999999999095,3.0535003843891206,1.435624388305752,0.06047043585792185,0.4647687164635268
0.23525999999999153,3.055887364757668,1.440235158597493,0.06124327706824962,0.4663583750988642
0.2369199999999921,3.0582818971359464,1.4447230750659905,0.0620187226782774,0.4679064950434243
0.2385799999999927,3.0606837769926583,1.4490874247598973,0.06279670347470674,0.46941276525700665
0.24023999999999326,3.063092798626327,1.4533275108428636,0.06357714973341824,0.4708768813661324
0.24189999999999384,3.065508755192372,1.457442652981507,0.06435999123070331,0.47229854586246584
0.24355999999999442,3.0679314387308225,1.4614321877275593,0.06514515725482303,0.47367746829828883
0.245219999999995,3.0703606401946573,1.4652954688937307,0.0659325766178888,0.47501336547879064
0.24687999999999558,3.0727961494787674,1.4690318679228336,0.06672217766805943,0.4763059616509356
0.24853999999999615,3.075237755449523,1.4726407742497112,0.06751388830204874,0.47755498868867363
0.25019999999999676,3.0776852459749344,1.4761215956555214,0.06830763597793739,0.4787601862742613
0.2518699999999965,3.0801532027919936,1.4794935613735467,0.06910814697560508,0.47992816267374006
0.2535399999999962,3.0826266816695975,1.4827347493745247,0.06991057106720218,0.4810512760038445
0.25520999999999594,3.0851054637513617,1.4858446149717381,0.07071483312975577,0.4821292862069452
0.25687999999999567,3.087589329288065,1.4888226336390027,0.0715208576466369,0.48316196192396704
0.2585499999999954,3.0900780576715836,1.491668301329464,0.07232856872222425,0.48414908065763157
0.2602199999999951,3.09257142746935,1.4943811347838072,0.07313789009683581,0.48509042893029
0.26188999999999485,3.0950692164593208,1.4969606718274644,0.07394874516191964,0.4859858024361344
0.2635599999999946,3.0975712016654247,1.4994064716564215,0.07476105697549384,0.48683500618758013
0.2652299999999943,3.1000771593934844,1.5017181151112344,0.07557474827782606,0.4876378546556191
0.26689999999999403,3.102586865267583,1.5038952049388823,0.07638974150734218,0.4883941719039507
0.26855999999999464,3.1050850349523302,1.5059255398005813,0.07720106779938735,0.48909968178600577
0.27021999999999524,3.1075864640981137,1.507822210517227,0.07801352683482778,0.4897588981878814
0.27187999999999585,3.110090930550135,1.5095848926928057,0.07882704164570398,0.49037167721731195
0.27353999999999645,3.112598211633566,1.5112132842123676,0.07964153503333468,0.49093788480536277
0.27519999999999706,3.1151080841906915,1.5127071054323844,0.08045692958470552,0.4914573968039619
0.27685999999999766,3.117620324618364,1.5140660993575303,0.08127314768901372,0.4919300990764792
0.27851999999999827,3.1201347089057347,1.5152900318036393,0.08209011155435753,0.4923558875812253
0.2801799999999989,3.122651012672247,1.5163786915466093,0.08290774322455799,0.49273466844775166
0.2818399999999995,3.125169011205863,1.517331890457044,0.08372596459610161,0.4930663580458451
0.2835000000000001,3.1276884795015025,1.5181494636204431,0.08454469743519125,0.49335088304711694
0.28517999999999893,3.13023956899894,1.518838655734342,0.08537373518421723,0.49359075132763797
0.2868599999999978,3.1327916994426115,1.5193886669861314,0.08620313524025869,0.49378219276326135
0.28853999999999663,3.13534463692313,1.5197993996568497,0.08703281620816214,0.49392516388019014
0.2902199999999955,3.137898147387686,1.5200707807323628,0.08786269662896325,0.49401963219172
0.29189999999999433,3.140451996681591,1.5202027619514888,0.08869269499836702,0.4940655762229024
0.2935799999999932,-3.1401793565896905,1.5201953198378293,0.08952272978526242,0.494062985526857
0.29525999999999203,-3.1376255323005457,1.5200484557152585,0.09035271945025738,0.49401186069271014
0.2969399999999909,-3.1350720718410634,1.5197621957070506,0.0911825824642201,0.493912213345147
0.2986199999999897,-3.132519209357038,1.5193365907186431,0.0920122373268125,0.49376406613557866
0.3002999999999886,-3.129967178887949,1.5187717164040644,0.09284160258500188,0.4935674527249366
0.3019599999999892,-3.127446575770897,1.5180768726458769,0.09366073037115864,0.49332561942745756
0.3036199999999898,-3.124927238789218,1.517246274123913,0.09447941751167149,0.49303656415481245
0.3052799999999904,-3.1224093931796673,1.5162800646749395,0.09529758566972034,0.492700350875682
0.306939999999991,-3.1198932639208676,1.5151784114466902,0.09611515662327152,0.49231705390980324
0.3085999999999916,-3.117379075694703,1.5139415047908893,0.09693205228221614,0.4918867578731498
0.3102599999999922,-3.114867052847897,1.5125695581416667,0.09774819470541111,0.4914095576156272
0.3119199999999928,-3.1123574193538066,1.5110628078795387,0.09856350611761064,0.4908855581513735
0.3135799999999934,-3.109850398774455,1.5094215131811448,0.09937790892627596,0.4903148745817627
0.315239999999994,-3.107346214222824,1.507645955854954,0.10019132573825126,0.489697632011221
0.31689999999999463,-3.104845088325432,1.505736440163169,0.10100367937629398,0.48903396545597494
0.31856999999999436,-3.102332206315854,1.503680580277391,0.1018197761135606,0.4883196030379705
0.3202399999999941,-3.099822870277822,1.501489828687257,0.1026346408643434,0.4875585595929576
0.3219099999999938,-3.0973173051684872,1.4991645627477135,0.10344819580958564,0.48675100232812885
0.32357999999999354,-3.0948157352963057,1.4967051819447557,0.10426036341759003,0.4858971081584533
0.32524999999999327,-3.092318384284285,1.4941121076448143,0.10507106646012437,0.4849970635782949
0.326919999999993,-3.0898254750336633,1.4913857828316515,0.10588022802830753,0.4840510645266422
0.3285899999999927,-3.087337229688036,1.4885266718311316,0.10668777154826506,0.48305931624613446
0.33025999999999245,-3.084853869597952,1.4855352600242417,0.1074936207965444,0.48202203313607916
0.3319299999999922,-3.082375615286001,1.4824120535487482,0.10829769991527972,0.48093943859966115
0.3335999999999919,-3.0799026864124044,1.4791575789898959,0.10909993342709694,0.47981176488555133
0.33526999999999163,-3.0774353017411338,1.47577238306056,0.10990024624974962,0.47863925292412796
0.33693999999999136,-3.0749736791065736,1.4722570322712758,0.11069856371047707,0.4774221521585302
0.3386099999999911,-3.07251803538074,1.4686121125905804,0.11149481156007614,0.4761607203707682
0.3402799999999908,-3.070068586441077,1.464838229096112,0.11228891598667862,0.4748552235031186
0.34194999999999054,-3.06762554713884,1.4609360056169136,0.11308080362922664,0.4735059354750391
