time,theta,thetadot,x,xdot
0.0016800000000000068,0.09998260815004752,-0.020704744513988748,0.00001275043897903802,0.015179147167164826
0.0033600000000000136,0.09993055354841777,-0.04126550153178019,0.00005092221936885788,0.03026360742882566
0.00504000000000002,0.09984408180651289,-0.06167784866609827,0.00011435332008822969,0.04524987135373222
0.006720000000000027,0.0997234459146744,-0.0819374237259489,0.00020287586204559597,0.06013447450187921
0.008400000000000034,0.09956890614071912,-0.1020399251193306,0.0003163161841399588,0.07491399792125901
0.01008000000000004,0.09938072992778925,-0.12198111226677708,0.00045449492009556934,0.08958506864375668
0.011760000000000046,0.09915919179149874,-0.141756806025784,0.0006172270761288628,0.10414436018004455
0.013440000000000053,0.09890457321635747,-0.1613628891261008,0.0008043221094458162,0.11858859301330416
0.015120000000000059,0.09861716255145518,-0.18079530661579657,0.0010155840075675943,0.13291453509157491
0.016800000000000065,0.09829725490538707,-0.20005006631794073,0.0012508113684819861,0.14711900231850153
0.018460000000000067,0.09794953223341168,-0.21889606211269735,0.0015065751809917854,0.16103120374295948
0.02012000000000007,0.09757067570166891,-0.23756101791336073,0.0017853297103506138,0.17481875161533594
0.02178000000000007,0.09716098887703263,-0.25604126676175615,0.0020868656006520804,0.1884787156691611
0.023440000000000072,0.09672078136228025,-0.27433320336834477,0.002410968671241024,0.20200821319343332
0.025100000000000074,0.09625036869333216,-0.2924332845873503,0.002757419996027848,0.21540440948305958
0.026760000000000075,0.09575007223569598,-0.3103380298996224,0.0031259959835479084,0.22866451828605946
0.028420000000000077,0.09522021908010335,-0.3280440219026916,0.003516468457760286,0.2417858022471731
0.03008000000000008,0.09466114193732761,-0.3455479068074205,0.003928604739579663,0.2547655733474978
0.03174000000000008,0.09407317903217222,-0.36284639494060894,0.004362167729134395,0.2676011933397604
0.03340000000000008,0.09345667399662029,-0.3799362612528652,0.0048169159887431895,0.2802900741788192
0.03507000000000007,0.09280800710977904,-0.3969161262684875,0.005295532501256585,0.29290525257902106
0.036740000000000064,0.09213116564926221,-0.4136785070478536,0.005795088034914756,0.3053668236484279
0.038410000000000055,0.09142651538446667,-0.4302203205031377,0.006315323996739227,0.3176723082967343
0.040080000000000046,0.09069442717647143,-0.44653855186680436,0.006855977698044635,0.32981928056724386
0.04175000000000004,0.08993527686349663,-0.46263025523017837,0.007416782443514675,0.3418053680491942
0.04342000000000003,0.08914944514546268,-0.47849255408231045,0.007997467620960177,0.35362825228232975
0.04509000000000002,0.08833731746765003,-0.4941226418481522,0.008597758791745964,0.3652856691532166
0.04676000000000001,0.08749928390346158,-0.5095177824250225,0.009217377781872281,0.376775409282791
0.04843,0.08663573903629132,-0.5246753107163238,0.009856042773695693,0.38809531840462463
0.05009999999999999,0.08574708184050488,-0.5395926331614397,0.010513468398273572,0.3992432977333875
0.05176999999999998,0.08483371556153904,-0.5542672282607287,0.011189365828315312,0.4102173043229854
0.053439999999999974,0.08389604759512954,-0.5686966470945068,0.011883442871722633,0.42101535141384766
0.055109999999999965,0.08293448936567796,-0.5828785138348976,0.01259540406570039,0.4316355087688398
0.056779999999999956,0.08194945620377064,-0.5968105262494171,0.013324950771418485,0.4420759029972772
0.058449999999999946,0.08094136722286442,-0.6104904561951487,0.014071781269204532,0.452334717866517
0.06011999999999994,0.07991064519515573,-0.6239161501023582,0.014835590854246152,0.46241019460060945
0.06178999999999993,0.07885771642665178,-0.6370855294463933,0.015616071932780808,0.47230063216549356
0.06345999999999992,0.07778301063146432,-0.6499965912067125,0.016412914118750316,0.4820043875402284
0.06512999999999991,0.07668696080534838,-0.662647408311888,0.01722580433089629,0.4915198759737573
0.0667999999999999,0.07557000309851043,-0.6750361300694335,0.018054426890271934,0.5008455712267109
0.06845999999999991,0.07443944793363794,-0.6870882032872435,0.018893364091855908,0.5099252522093207
0.07011999999999992,0.07328910423023652,-0.6988778920297273,0.019747215527304702,0.5188145731862635
0.07177999999999993,0.07211940886299899,-0.7104036059532444,0.020615664100078215,0.5275122087225067
0.07343999999999994,0.07093080128347805,-0.7216638307809176,0.021498390561463573,0.5360168912902581
0.07509999999999994,0.06972372339354536,-0.7326571286297807,0.022395073606829515,0.5443274114242621
0.07675999999999995,0.06849861941832493,-0.743382138316895,0.02330538997212448,0.5524426178600388
0.07841999999999996,0.06725593577863642,-0.7538375756434382,0.02422901453058972,0.5603614176546772
0.08007999999999997,0.06599612096298602,-0.7640222336557939,0.02516562038965821,0.5680827762898093
0.08173999999999998,0.06471962539914346,-0.7739349828826999,0.02611487898800946,0.5756057177564112
0.08339999999999999,0.06342690132534606,-0.7835747715475407,0.027076460192749764,0.5829293246210923
0.08507999999999999,0.0621025427162354,-0.7930538698902222,0.028061834310968665,0.5901386907397308
0.08675999999999999,0.06076249578650343,-0.8022514560340102,0.02905914719590414,0.5971421753828896
0.08843999999999999,0.059407234184957546,-0.8111666826774435,0.030068052322356438,0.6039390102043694
0.09011999999999999,0.058037232914916935,-0.8197987846517695,0.031088201925975844,0.6105284883930518
0.09179999999999999,0.056652968196162966,-0.8281470790007569,0.032119247106614054,0.6169099646401115
0.09348,0.05525491732678209,-0.8362109650287058,0.03316083793160236,0.6230828550846116
0.09516,0.053843558544955275,-0.8439899243159562,0.03421262353892014,0.6290466372372834
0.09684,0.05241937089074912,-0.8514835207012528,0.03527425224021689,0.6348008498823102
0.09852,0.05098283406796485,-0.8586914002303729,0.03634537162365067,0.6403450929569668
0.1002,0.04953442830610227,-0.8656132910704816,0.037425628656505734,0.645679027408993
0.10187,0.04808335651395107,-0.8722092883754192,0.03850816191662689,0.6507718102199133
0.10354000000000001,0.046621505671653476,-0.8785224054674067,0.03959902617949189,0.6556562970433518
0.10521000000000001,0.04514934820794171,-0.8845526163169279,0.04069787346272085,0.6603323334239218
0.10688000000000002,0.043667356528668495,-0.8902999743956749,0.041804355575069674,0.6647998236987024
0.10855000000000002,0.04217600288425247,-0.8957646124214687,0.042918124214407494,0.66905873075009
0.11022000000000003,0.040675759237578754,-0.9009467420681732,0.04403883106526334,0.6731090757370389
0.11189000000000003,0.03916709713241326,-0.9058466536404778,0.04516612789590602,0.6769509378047632
0.11356000000000004,0.03765048756238937,-0.9104647157134853,0.04629966665492141,0.6805844537730054
0.11523000000000004,0.03612640084062592,-0.9148013747370982,0.047439099567251244,0.684009817802999
0.11690000000000005,0.03459530647003509,-0.918857154605256,0.04858407922965823,0.6872272810432842
0.11856000000000004,0.033066899226769926,-0.9226098229318834,0.04972735642454264,0.69021905692861
0.12022000000000004,0.031532491878017536,-0.9260862353328294,0.050875430015983075,0.6930060828371509
0.12188000000000003,0.02999254239212232,-0.9292871314796364,0.05202796046182855,0.6955887709099545
0.12354000000000002,0.028447507448527184,-0.9322133246251365,0.053184608948931934,0.697967587336061
0.1252,0.026897842316113633,-0.9348657010178881,0.054345037482502516,0.700143051909536
0.12686,0.02534400073254083,-0.9372452192841669,0.05550890897470755,0.7021157375675444
0.12852,0.02378643478463707,-0.9393529097779378,0.05667588733249149,0.7038862699097896
0.13018,0.022225594789896524,-0.9411898738992847,0.05784563754458231,0.7054553266996593
0.13183999999999998,0.020661929179133086,-0.9427572833818212,0.059017825767654915,0.7068236373474458
0.13349999999999998,0.0190958843803424,-0.9440563795496572,0.06019211941162207,0.7079919823760267
0.13516999999999998,0.017518453786858443,-0.9450949211292037,0.061375276865508525,0.7089671042929193
0.13684,0.015939513317201177,-0.9458646229537326,0.06255989522614966,0.7097415737375772
0.13851,0.014359510702396737,-0.9463669568078464,0.06374564019578755,0.710316338246052
0.14018,0.012778891158877804,-0.9466034624155012,0.06493217910079045,0.7106923953491313
0.14185,0.01119809727578573,-0.9465757465276134,0.0661191809746149,0.7108707919378617
0.14352,0.009617568903818983,-0.9462854819825952,0.06730631663969515,0.7108526236136878
0.14519,0.008037743045672396,-0.9457344067407066,0.06849325878823505,0.7106390340237314
0.14686000000000002,0.006459053748110164,-0.9449243228931486,0.06967968206187788,0.7102312141817501
0.14853000000000002,0.004881931995714002,-0.9438570956468496,0.0708652631302306,0.7096304017753258
0.15020000000000003,0.0033068056063462127,-0.9425346522859274,0.07204968076822008,0.7088378804598449
0.15187000000000003,0.0017340991283658004,-0.9409589811108355,0.0732326159322597,0.7078549791398403
0.15354000000000004,0.00016423373963402195,-0.9391321303562256,0.07441375183520572,0.7066830712382763
0.15521000000000004,-0.0014023728516559452,-0.9370562070885766,0.07559277402008374,0.7053235739543616
0.15688000000000005,-0.0029653065042923267,-0.9347333760846649,0.07676937043256657,0.7037779475104844
0.15855000000000005,-0.004524156739469974,-0.9321658586919591,0.0779432314921859,0.7020476943888662
0.16022000000000006,-0.006078516834298216,-0.9293559316720419,0.07911405016226111,0.7001343585585352
0.16189000000000006,-0.007627983913363924,-0.9263059260281676,0.08028152201852941,0.6980395246932235
0.16356000000000007,-0.009172159038324221,-0.9230182258180758,0.08144534531646284,0.6957648173807903
0.16523000000000007,-0.010710647295505166,-0.9194952669531835,0.08260522105725844,0.693311900324778
0.16690000000000008,-0.012243057881484578,-0.9157395359852845,0.08376085305248883,0.6906824755387013
0.16856000000000007,-0.013759886532729842,-0.911777213888918,0.08490506912097233,0.6878950036216661
0.17022000000000007,-0.015269951073652473,-0.9075899592371623,0.08604451612821357,0.6849366054420326
0.17188000000000006,-0.01677288026310677,-0.9031803560252645,0.0871789118143301,0.6818090605946904
0.17354000000000006,-0.018268307186395934,-0.8985510328522007,0.08830797690195284,0.6785141828715959
0.17520000000000005,-0.019755869328300316,-0.8937046616990569,0.0894314351523222,0.6750538194533399
0.17686000000000004,-0.02123520864407303,-0.8886439567017984,0.09054901342003926,0.6714298500971048
0.17852000000000004,-0.022705971628394512,-0.8833716729194666,0.09166044170646638,0.667644186321554
0.18018000000000003,-0.0241678093822793,-0.8778906050988258,0.09276545321177251,0.663698770589184
0.18184000000000003,-0.025620377677929927,-0.872203586436464,0.09386378438561961,0.6595955754866619
0.18350000000000002,-0.027063337021534566,-0.8663134873393386,0.09495517497648708,0.6553366029036587
0.18517000000000003,-0.028504954763771014,-0.8601867395641096,0.09604587718588893,0.6508973684035451
0.18684000000000003,-0.02993617421922127,-0.8538603756971344,0.0971290377015667,0.6463046128581961
0.18851000000000004,-0.031356664560217684,-0.8473374244944717,0.09820440191663903,0.6415604591094537
0.19018000000000004,-0.03276610004469318,-0.840620947748502,0.09927171879161892,0.6366670566423013
0.19185000000000005,-0.034164160070290224,-0.833714039017195,0.10033074089820072,0.6316265807384004
0.19352000000000005,-0.03555052922635102,-0.8266198223574326,0.1013812244616347,0.6264412316309877
0.19519000000000006,-0.03692489734379642,-0.8193414510632441,0.1024229294016916,0.6211132336615702
0.19686000000000006,-0.0382869595429024,-0.811882106409775,0.10345561937222099,0.6156448344388418
0.19853000000000007,-0.039636416278984385,-0.8042449964037857,0.10447906179930688,0.6100383040002276
0.20020000000000007,-0.04097297338600097,-0.7964333545414387,0.10549302791802583,0.6042959339764484
0.20187000000000008,-0.04229634211808976,-0.7884504385741049,0.10649729280781259,0.598420036759477
0.20354000000000008,-0.04360623918904938,-0.7802995292828835,0.10749163542643939,0.592412944674246
0.2052100000000001,-0.04490238680978271,-0.7719839292624974,0.10847583864261533,0.5862770091544481
0.2068800000000001,-0.04618451272371756,-0.7635069617151918,0.10944968926721307,0.5800145999227512
0.2085500000000001,-0.04745235024022196,-0.7548719692552287,0.11041297808313046,0.5736281041757374
0.2102200000000001,-0.048705638266032227,-0.746082312724536,0.111365499873795,0.5671199257738556
0.2118900000000001,-0.04994412133471296,-0.7371413700200345,0.11230705345032019,0.560492484436661
0.2135600000000001,-0.051167549634168724,-0.7280525349331329,0.1132374416773223,0.5537482149435986
0.21523000000000012,-0.05237567903222827,-0.7188192160018431,0.11415647149740749,0.5468895663405715
0.21690000000000012,-0.05356827110032265,-0.7094448353759372,0.11506395395433866,0.5399190011525165
0.21857000000000013,-0.05474509313527932,-0.6999328276955314,0.11595970421489277,0.5328389946021967
0.22024000000000013,-0.05590591817925501,-0.6902866389834483,0.11684354158941863,0.5256520338354016
0.22191000000000013,-0.057050525037830584,-0.680509725551675,0.11771528955110648,0.5183606171527306
0.22358000000000014,-0.05817869829629167,-0.6706055529222037,0.11857477575398008,0.5109672532481223
0.22525000000000014,-0.059290228334119364,-0.6605775947625064,0.11942183204962306,0.503474460454274
0.22692000000000015,-0.06038491133771553,-0.6504293318358654,0.12025629450265092,0.4958847659950834
0.22859000000000015,-0.06146254931138774,-0.6401642509667478,0.12107800340494053,0.4882007052452294
0.23026000000000016,-0.06252295008661911,-0.629785844021386,0.12188680328862926,0.48042482099699557
0.23193000000000016,-0.0635659273296485,-0.6192976069036916,0.12268254293789578,0.4725596627344259
0.23360000000000017,-0.06459130054738678,-0.6087030385666046,0.12346507539953487,0.4646077859148901
0.23527000000000015,-0.06559889509169502,-0.5980056400389518,0.12423425799233878,0.4565717512581233
0.23694000000000012,-0.0665885421620506,-0.5872089134678594,0.1249899523152975,0.4484541240427925
0.2386100000000001,-0.06756007880662705,-0.5763163611767402,0.12573202425463062,0.4402574734106319
0.24028000000000008,-0.06851334792181388,-0.5653314847388522,0.12646034398966352,0.4319843716781773
0.24195000000000005,-0.06944819825020213,-0.5542577840663976,0.1271747859975605,0.42363739365611913
0.24362000000000003,-0.07036448437706178,-0.5430987565151122,0.12787522905692747,0.41521911597628586
0.24529,-0.07126206672533669,-0.531857896004271,0.1285615562502974,0.40673211642625773
0.24695999999999999,-0.07214081154918274,-0.5205386921520165,0.1292336549655106,0.3981789732916036
0.24862999999999996,-0.07300059092607473,-0.509144629425895,0.12989141689600317,0.38956226470572564
0.25029999999999997,-0.0738412827475073,-0.4976791863084688,0.13053473804001592,0.3808845680072872
0.25195999999999996,-0.0746579089052947,-0.486214770100165,0.13115979695279054,0.3722007302529514
0.25361999999999996,-0.0754554514092286,-0.4746866742483053,0.13177039494025225,0.3634617160602708
0.25527999999999995,-0.07623380736922049,-0.46309829273822645,0.1323664425058897,0.3546700506916499
0.25693999999999995,-0.07699287952171956,-0.4514530105999818,0.13294785434244763,0.3458282561997645
0.25859999999999994,-0.07773257621423287,-0.43975420316921726,0.13351454932611104,0.33693885084019726
0.26025999999999994,-0.07845281138862968,-0.42800523536151364,0.13406645050971994,0.3280043484911309
0.26191999999999993,-0.07915350456325225,-0.4162094609599736,0.1346034851150268,0.319027258080038
0.2635799999999999,-0.07983458081385487,-0.40437022191582417,0.13512558452400802,0.3100100830173057
0.2652399999999999,-0.08049597075339256,-0.39249084766179565,0.135632684269241,0.30095532063673014
0.2668999999999999,-0.08113761051068036,-0.38057465443803185,0.1361247240233579,0.2918654616428127
0.2685699999999999,-0.08176312759794413,-0.3685530558188424,0.1366044747428675,0.28268806651317396
0.2702399999999999,-0.0823685432174271,-0.35650086836788064,0.13706887379456137,0.2734801753221216
0.27190999999999993,-0.08295380906883314,-0.344421424297537,0.13751787234813773,0.26424430048925585
0.27357999999999993,-0.08351888240312065,-0.33231803966642537,0.13795142576151148,0.25498294544529365
0.27524999999999994,-0.08406372599499619,-0.3201940137453866,0.1383694935653555,0.24569860409648975
0.27691999999999994,-0.08458830811435868,-0.30805262839485276,0.13877203944675295,0.2363937602956614
0.27858999999999995,-0.08509260249671327,-0.2958971474532917,0.1391590312319717,0.2270708873197415
0.28025999999999995,-0.08557658831257288,-0.2837308161364521,0.13953044086837169,0.21773244735378608
0.28192999999999996,-0.0860402501358653,-0.27155686044713023,0.13988624440545583,0.2083808909813624
0.28359999999999996,-0.08648357791136328,-0.2593784865951809,0.14022642197507534,0.1990186566812468
0.28526999999999997,-0.0869065669211543,-0.24719888042749946,0.14055095777079965,0.18964817033036213
0.28694,-0.08730921775016667,-0.23502120686770195,0.1408598400264614,0.18027184471288696
0.28861,-0.08769153625076774,-0.2228486093652396,0.14115306099388675,0.17089207903547263
0.29028,-0.08805353350644982,-0.21068420935368315,0.14143061691982126,0.1615112584485046
0.29195,-0.08839522579461898,-0.19853110571792243,0.14169250802206124,0.15213175357334946
0.29362,-0.08871663454850134,-0.1863923742700302,0.1419387384648005,0.1427559200355309
0.29529,-0.0890177863181811,-0.17427106723354738,0.1421693163332026,0.13338609800378254
0.29696,-0.08929871273078414,-0.16217021273595345,0.14238425360720797,0.12402461173492789
0.29863,-0.08955945044982094,-0.15009281430909371,0.14258356613458606,0.11467376912454226
0.3003,-0.08980004113370144,-0.13804185039734382,0.14276727360324173,0.10533586126335531
0.30197,-0.09002053139343506,-0.1260202738733001,0.14293539951278578,0.09601316199935664
0.30364,-0.09022097274952802,-0.1140310115607947,0.1430879711453787,0.08670792750557187
0.30531,-0.09040142158809002,-0.10207696376504201,0.14322501953585753,0.07742239585347936
0.30698000000000003,-0.0905619391161622,-0.0901610038097352,0.1433465794411551,0.06815878659204425
0.30865000000000004,-0.09070259131627768,-0.07828597758092078,0.14345268930902055,0.05891930033234938
0.31032000000000004,-0.09082344890026597,-0.06645470307748957,0.14354339124605148,0.049706118337808
0.31199000000000005,-0.09092458726231209,-0.054669969968133926,0.14361873098504574,0.04052140211994748
0.31366000000000005,-0.09100608643128116,-0.042934539154631655,0.14367875785168338,0.031367293039758035
0.31533000000000005,-0.09106803102231888,-0.03125114234132888,0.1437235247305472,0.0222459119146051
0.31700000000000006,-0.09111051018773807,-0.019622481610704973,0.14375308803049167,0.013159358630708709
0.31867000000000006,-0.09113361756720156,-0.008051229004914838,0.14376750764936921,0.004109711761197855
0.32034000000000007,-0.09113745123721112,0.0034599738867849353,0.14376684693812344,-0.0049009718102475276
0.3220100000000001,-0.09112211365991221,0.014908516334807368,0.14375117266425852,-0.013870657260149664
0.3236800000000001,-0.09108771163122432,0.02629181887027362,0.14372055497469402,-0.022797332190359287
0.3253500000000001,-0.09103435622830633,0.0376073336803765,0.14367506735801483,-0.03167900698752888
0.3270200000000001,-0.09096216275636623,0.04885254499811507,0.1436147866061255,-0.04051371517690202
0.3286900000000001,-0.09087125069482484,0.06002496948643442,0.14353979277531845,-0.04929951377038366
0.3303600000000001,-0.09076174364284252,0.0711221566167933,0.14345016914676575,-0.05803448360885197
0.3320300000000001,-0.09063376926421846,0.08214168904217037,0.14334600218644422,-0.06671672969866804
0.3337000000000001,-0.09048745923167162,0.0930811829645085,0.14322738150450323,-0.07534438154233601
0.3353700000000001,-0.09032294917051277,0.10393828849658528,0.14309439981408537,-0.08391559346326191
0.3370400000000001,-0.09014037860171686,0.11471069001828649,0.14294715288960974,-0.09242854492455596
