time,theta,thetadot,x,xdot
0.0016600000000034924,0.4999526668949583,-0.05702865179322115,-0.7919575580852442,0.05113509141506224
0.003320000000006985,0.4998107763369289,-0.1139262650226108,-0.7918303163638645,0.10216894820146122
0.004980000000010478,0.4995745516753494,-0.17068581110620223,-0.7916184506498303,0.15309221189942102
0.00664000000001397,0.4992442279966414,-0.22730017659799512,-0.7913221523171631,0.2038954935434883
0.008300000000017462,0.4988200522699755,-0.2837621572984441,-0.7909416283505019,0.2545693737524688
0.009960000000020954,0.49830228350264477,-0.340064452567732,-0.7904771013954158,0.3051044029434638
0.011620000000024446,0.4976911929047062,-0.39619965984608896,-0.7899288098082597,0.35549110166845665
0.013280000000027938,0.49698706406254267,-0.45216026938575815,-0.7892970077053697,0.40571996107198366
0.01494000000003143,0.49619019312099016,-0.5079386591995435,-0.7885819650114001,0.45578144346851185
0.016600000000034924,0.49530088897366653,-0.5635270902312128,-0.7877839675066034,0.5056659830382385
0.018270000000036087,0.49431328261420926,-0.6192516841972148,-0.7868977617355951,0.5556634665808033
0.01994000000003725,0.4932327913632939,-0.6747679823956285,-0.785928226341986,0.6054623995319551
0.021610000000038414,0.4920597699592972,-0.7300677187747547,-0.7848757010993284,0.6550529610507808
0.023280000000039578,0.49079458705870493,-0.7851424899104766,-0.7837405422023437,0.7044253055167826
0.02495000000004074,0.48943762546864944,-0.8399837512685624,-0.7825231223072087,0.7535695638419927
0.026620000000041905,0.48798928238546385,-0.8945828137370109,-0.7812238305695516,0.802475844900125
0.02829000000004307,0.4864499696387962,-0.9489308404362915,-0.7798430726799653,0.8511342370722299
0.029960000000044232,0.4848201139408124,-1.0030188438156349,-0.7783812708968425,0.8995348099084489
0.0316300000000454,0.4831001571400029,-1.0568376830438364,-0.7768388640763383,0.9476676159056048
0.03330000000004656,0.4812905564790947,-1.1103780617033168,-0.7752163076992695,0.995522692400501
0.034970000000041905,0.47939178485656153,-1.1636305257962822,-0.7735140738947605,1.0430900635787856
0.03664000000003725,0.477404331091169,-1.216585462073201,-0.7717326514604146,1.0903597426003766
0.03831000000003259,0.475328700189076,-1.2692330966912655,-0.7698725458788751,1.1373217338400974
0.03998000000002793,0.473165413612867,-1.321563494214478,-0.7679342793305235,1.1839660352456638
0.04165000000002327,0.4709150095519687,-1.3735665569644047,-0.765918390702149,1.2302826408128054
0.043320000000018614,0.46857804319385116,-1.4252320247319548,-0.7638254355913859,1.2762615431784672
0.044990000000013956,0.466155086995402,-1.4765494748605328,-0.7616559863067224,1.3218927363330195
0.0466600000000093,0.4636467309538439,-1.527508322711048,-0.7594106318628795,1.367166218452562
0.04833000000000464,0.4610535828765502,-1.578097822519391,-0.7570899779713608,1.4120719948525526
0.04999999999999998,0.4583762686490932,-1.6283070686570722,-0.7546946470259667,1.4566000810641453
0.051670000000001146,0.45561543250083403,-1.6781249973059489,-0.7522252780830604,1.5007405060349077
0.05334000000000231,0.4527717372674019,-1.7275403885569376,-0.7496825268364192,1.5444833154548083
0.05501000000000347,0.44984586464924897,-1.7765418689452206,-0.7470670655863739,1.5878185752108036
0.056680000000004636,0.4468385154656397,-1.8251179144308771,-0.7443795832031062,1.630736374970369
0.0583500000000058,0.44375040990327347,-1.8732568538364076,-0.7416207850838442,1.673226831896757
0.060020000000006964,0.4405822877587794,-1.9209468727513992,-0.7387913931037439,1.7152800944979167
0.06169000000000813,0.43733490867429353,-1.968176017914545,-0.735892145560229,1.7568863466112377
0.0633600000000093,0.43400905236531406,-2.0149322020829605,-0.7329237971105641,1.7980358115263286
0.06503000000001047,0.43060551884001214,-2.0612032093983985,-0.7298871187024258,1.8387187562480765
0.06670000000001164,0.4271251286091612,-2.1069767012595704,-0.7267828974972373,1.8789254959022292
0.06837000000001281,0.4235687228858321,-2.1522402227092883,-0.7236119367860259,1.9186463982857218
0.07004000000001398,0.41993716377398765,-2.1969812093446044,-0.7203750558975602,1.9578718885639097
0.07171000000001515,0.416231334445097,-2.2411869947574656,-0.7170730900985206,1.996592454116779
0.07338000000001632,0.4124521393018779,-2.284844818512684,-0.7137068904854506,2.034798649536077
0.07505000000001749,0.4086005041282647,-2.3279418346691934,-0.7102773238682382,2.072481101775128
0.07672000000001866,0.40467737622469074,-2.3704651208496395,-0.7067852726448691,2.1096305154528965
0.07839000000001983,0.40068372452776574,-2.412401687862323,-0.7032316346671935,2.146237678313574
0.080060000000021,0.3966205397134235,-2.453738489878376,-0.6996173230974464,2.1822934668426774
0.08173000000002217,0.39248883428261094,-2.494462435165795,-0.6959432662552589,2.2177888520402527
0.08340000000002334,0.38828964262858856,-2.5345603973805924,-0.6922104074548986,2.2527149053513655
0.08507000000002451,0.3840240210849127,-2.574019227413827,-0.6884197048324756,2.28706280475357
0.08674000000002569,0.3796930479531735,-2.612825765791655,-0.684572131162854,2.3208238410004935
0.08841000000002686,0.37529782350956864,-2.650966855623803,-0.680668673666008,2.353989424020066
0.09008000000002803,0.3708394699894026,-2.6884293560939874,-0.676710333802567,2.3865510894652475
0.0917500000000292,0.36631913154861245,-2.7252001564837967,-0.6726981270582965,2.418500505414348
0.09342000000003037,0.36173797420143894,-2.7612661907194247,-0.6686330827172693,2.4498294792172333
0.09509000000003154,0.3570971857333795,-2.7966144524283814,-0.6645162436234854,2.480529964482823
0.09676000000003271,0.3523979755885841,-2.831232010490921,-0.6603486659307104,2.510594068202339
0.09843000000003388,0.3476415747308824,-2.8651060250684277,-0.6561314188403103,2.540014058001747
0.10010000000003505,0.3428292354776627,-2.898223764088382,-0.651865584326874,2.5687823695157666
0.10177000000003622,0.337962231305858,-2.930572620162808,-0.6475522568514261,2.5968916138746776
0.10344000000003739,0.3330418566293381,-2.96214012791429,-0.6431925430620518,2.624334585293969
0.10511000000003856,0.32806942654704946,-2.9929139816807493,-0.6387875614817693,2.651104268755632
0.10678000000003973,0.3230462765612971,-3.0228820535672005,-0.6343384421835085,2.6771938477686135
0.1084500000000409,0.3179737622656173,-3.052032411809693,-0.6298463264520741,2.7025967121946293
0.11012000000004207,0.3128532590017514,-3.080353339413591,-0.6253123664329961,2.7273064661241837
0.11179000000004324,0.3076861614852958,-3.107833353025268,-0.6207377247681994,2.7513169357862806
0.11346000000004441,0.3024738833996746,-3.1344612219932473,-0.6161235742184478,2.77462217747393
0.11513000000004558,0.29721785695815783,-3.1602259875717835,-0.6114710972725548,2.7972164854661954
0.11680000000004676,0.29191953243372776,-3.185116982216914,-0.6067814857433823,2.8190943999261586
0.11846000000004443,0.2866124681725198,-3.2089793180989004,-0.6020843422235888,2.840123863868546
0.12012000000004211,0.2812665251336676,-3.2319582340676707,-0.5973528853191454,2.860435491152705
0.12178000000003979,0.2758831776728943,-3.254044224320651,-0.5925883104479401,2.880024689308396
0.12344000000003746,0.27046391562923117,-3.275228142341884,-0.5877918204280259,2.8988871359942623
0.12510000000003513,0.2650102437134012,-3.2955012192549296,-0.5829646250232434,2.9170187862023043
0.1267600000000328,0.25952368086593863,-3.3148550819233744,-0.5781079404770192,2.9344158792955
0.12842000000003045,0.25400575958551774,-3.3332817707351694,-0.5732229890346392,2.95107494585139
0.13008000000002812,0.24845802522806834,-3.3507737570056904,-0.5683109984543422,2.9669928142837962
0.13174000000002578,0.24288203527736602,-3.367323959933415,-0.5633732015076256,2.9821666172143555
0.13340000000002344,0.2372793585878946,-3.382925763041453,-0.5584108354692014,2.9965937975652057
0.13507000000002461,0.23161759842611454,-3.3976619241407677,-0.5533950384634092,3.010354619723211
0.13674000000002579,0.2259320397766887,-3.411426255214694,-0.5483568951132365,3.0233555607675435
0.13841000000002696,0.22022430996494555,-3.4242135338990627,-0.5432976757799071,3.035595000023006
0.14008000000002813,0.21449604459151245,-3.436019074334538,-0.5382186532486491,3.047071656243463
0.1417500000000293,0.2087488866252323,-3.4468387404251852,-0.5331211021581548,3.0577845920079523
0.14342000000003047,0.20298448547471473,-3.456668958157132,-0.5280062984230808,3.0677332176527314
0.14509000000003164,0.19720449604014276,-3.4655067269152173,-0.5228755186503886,3.076917294712685
0.1467600000000328,0.19141057774705836,-3.4733496297385487,-0.5177300395503635,3.0853369388468965
0.14843000000003398,0.18560439356394512,-3.4801958424593904,-0.512571137343194,3.0929926222248225
0.15010000000003515,0.1797876090055167,-3.4860441416738066,-0.5074000871620322,3.0998851753513432
0.15177000000003632,0.17396189112370158,-3.490893911496941,-0.5022181624534857,3.1060157883110593
0.1534400000000375,0.16812890748838924,-3.4947451490607193,-0.49702663437652894,3.111386011414472
0.15511000000003866,0.16229032516006983,-3.497598468717085,-0.4918267712008433,3.115997755231179
0.15678000000003983,0.15644780965655522,-3.4994551049155707,-0.48661983770562106,3.1198532899978764
0.158450000000041,0.15060302391601704,-3.5003169137300585,-0.48140709457988534,3.1229552443917847
0.16012000000004217,0.1447576272586142,-3.500186373015918,-0.47618979782539106,3.125306603663082
0.16179000000004334,0.13891327434900783,-3.4990665811852986,-0.47096919816318106,3.1269107071230144
0.16346000000004451,0.13307161416207663,-3.496961254595128,-0.46574654044487357,3.1277712449875223
0.16513000000004568,0.12723428895414937,-3.493874723549294,-0.46052306306975527,3.127892254579458
0.16680000000004686,0.121402933242062,-3.489811926923479,-0.4552999974087462,3.1272781158957486
0.1684700000000422,0.11557917279234832,-3.484778405428133,-0.4500785672363076,3.125933546549128
0.17014000000003754,0.10976462362271877,-3.4787802935319667,-0.44485998817123584,3.1238635960973
0.17181000000003288,0.10396089101824386,-3.471824310075388,-0.4396454671275344,3.121073639775624
0.17348000000002822,0.09816956856419765,-3.463917747609751,-0.4344362017761623,3.117569371652491
0.17515000000002356,0.0923922371977561,-3.4550684605049,-0.4292333800186967,3.1133567972295606
0.1768200000000189,0.08663046428054741,-3.445284851873593,-0.42403817947379663,3.1084422255118875
0.17849000000001425,0.08088580269398503,-3.434575859367226,-0.4188517669773318,3.1028322605756355
0.1801600000000096,0.07515978995921944,-3.4229509399026754,-0.41367529809698994,3.0965337926635743
0.18183000000000493,0.06945394738344011,-3.41042005338508,-0.4085099166621247,3.0895539888408137
0.18350000000000027,0.06376977923414714,-3.3969936454958525,-0.40335675430954987,3.0819002832452727
0.18516000000000377,0.05814259919523342,-3.382767844384796,-0.39824766609844753,3.073630141708066
0.18682000000000726,0.052539750263913165,-3.36767921263234,-0.39315284629722325,3.064709577100181
0.18848000000001075,0.04696265514887812,-3.351739329230806,-0.3880733679573025,3.0551466159210894
0.19014000000001424,0.04141271700473544,-3.334960172709797,-0.3830102906232418,3.0449495041800034
0.19180000000001773,0.035891318785396954,-3.3173541010281644,-0.3779646599773333,3.034126696523888
0.19346000000002123,0.03039982263122151,-3.298933831025543,-0.372937507502398,3.0226868452003766
0.19512000000002472,0.024939569290574202,-3.279712417514967,-0.3679298501630094,3.010638788895001
0.1967800000000282,0.019511877576330605,-3.259703232098018,-0.3629426901053227,2.997991541481952
0.1984400000000317,0.01411804385771967,-3.238919941783303,-0.3579770143756223,2.9847542807271514
0.2001000000000352,0.008759341587765519,-3.217376487487928,-0.3530337946576334,2.9709363369817297
0.20177000000003636,0.0034050706645724696,-3.194953316140124,-0.3480844219897695,2.956460581866295
0.20344000000003754,-0.0019111350887580317,-3.171789783283412,-0.3431596986349918,2.941416448145175
0.2051100000000387,-0.007188051705299515,-3.147900789315651,-0.3382605655243208,2.9258138335645216
0.20678000000003988,-0.012424480264383614,-3.123301427309846,-0.3333879469663874,2.909662746402153
0.20845000000004105,-0.017619247195320317,-3.0980069614177395,-0.32854275047216325,2.8929732943172177
0.21012000000004222,-0.02277120454531545,-3.072032805597574,-0.32372586659814906,2.8757556733999072
0.2117900000000434,-0.027879230212179223,-3.045394502728373,-0.3189381688076624,2.858020157450045
0.21346000000004456,-0.03294222814252026,-3.0181077041688296,-0.3141805133498197,2.839777087511214
0.21513000000004573,-0.037959128496212885,-2.990188149814459,-0.3094537391557659,2.8210368616848513
0.2168000000000469,-0.042928887778011175,-2.961651648702074,-0.30475866775166466,2.801809925246409
0.21848000000004575,-0.04787981320842089,-2.9323401731288756,-0.300068282709598,2.7819889057228235
0.2201600000000446,-0.05278099766236626,-2.902436503379368,-0.2954115930705392,2.7616965971619476
0.22184000000004345,-0.05763145986682453,-2.871956832603201,-0.2907893815899554,2.740943720392569
0.2235200000000423,-0.06243024575263899,-2.8409173516194453,-0.28620241300222415,2.7197410074714794
0.22520000000004115,-0.06717642843661747,-2.8093342323507238,-0.281651434008833,2.6980991933179217
0.22688000000004,-0.07186910817644455,-2.7772236120276386,-0.27713717328029874,2.6760290077476983
0.22856000000003884,-0.07650741229971642,-2.744601578180668,-0.27266034147112933,2.6535411679131373
0.2302400000000377,-0.08109049510843251,-2.7114841544322092,-0.26822163124714354,2.630646371152894
0.23192000000003654,-0.08561753776029585,-2.6778872870971386,-0.2638217173244573,2.607355288253477
0.2336000000000354,-0.09008774812818413,-2.6438268325961753,-0.2594612565194453,2.5836785571224015
0.23526000000003305,-0.09444817017259122,-2.6097281148672966,-0.2551920832045595,2.559912780528905
0.23692000000003072,-0.09875163798036657,-2.5752073784843823,-0.2509626566137198,2.535791093810582
0.23858000000002838,-0.10299746344864141,-2.5402795974864754,-0.2467735591359913,2.511323632782507
0.24024000000002604,-0.10718498322749907,-2.5049596200389703,-0.24262535637752058,2.486520481697265
0.2419000000000237,-0.1113135585042276,-2.4692621603298845,-0.23851859725055746,2.461391669156926
0.24356000000002137,-0.11538257477471348,-2.4332017911793926,-0.2344538140689715,2.4359471643753485
0.24522000000001903,-0.11939144160314738,-2.396792937346537,-0.2304315226496895,2.4101968737811674
0.2468800000000167,-0.12333959237118458,-2.3600498695151324,-0.22645222241949697,2.3841506379509574
0.24854000000001436,-0.1272264840176713,-2.322986698939197,-0.22251639652666494,2.3578182288612743
0.250200000000012,-0.1310515967700145,-2.2856173727267812,-0.21862451195688248,2.3312093474476487
0.2518700000000132,-0.13483691229366884,-2.247729416109502,-0.21475397712536662,2.304171902600411
0.25354000000001436,-0.13855871948924467,-2.2095593449454323,-0.2109288122771636,2.276874076742072
0.25521000000001554,-0.14221655866678776,-2.171120834445539,-0.20714944418228212,2.2493255175392943
0.2568800000000167,-0.14580999282237792,-2.1324273784334973,-0.20341628356587477,2.2215357927777974
0.2585500000000179,-0.14933860733354937,-2.093492287416791,-0.19972972524260924,2.193514389230621
0.26022000000001905,-0.15280200965191842,-2.054328687167789,-0.19609014825273177,2.1652707117618486
0.2618900000000202,-0.15619982899384774,-2.01494951778778,-0.1924979159994411,2.136814082651437
0.2635600000000214,-0.15953171602993085,-1.9753675332269247,-0.18895337638721602,2.1081537411268614
0.26523000000002256,-0.16279734257403605,-1.9355953012331646,-0.1854568619607627,2.079298843087413
0.26690000000002373,-0.16599640127260357,-1.8956452037033489,-0.18200869004427192,2.0502584610071763
0.2685700000000249,-0.1691286052948456,-1.8555294374101636,-0.17860916288069917,2.021041584002954
0.27024000000002607,-0.17219368802445512,-1.8152600150788625,-0.17525856777080345,1.9916571180536953
0.27191000000002724,-0.17519140275338618,-1.7748487667883026,-0.17195717721170287,1.9621138863583167
0.2735800000000284,-0.17812152237822654,-1.7343073416713632,-0.1687052490347263,1.9324206298191597
0.2752500000000296,-0.1809838390996421,-1.6936472098904656,-0.16550302654236204,1.9025860076387353
0.27692000000003075,-0.18377816412533296,-1.6528796648646025,-0.16235073864412392,1.872618598017816
0.2785900000000319,-0.18650432737690167,-1.612015825725023,-0.15924859999117552,1.8425268989433816
0.2802600000000331,-0.1891621772009975,-1.5710666399774855,-0.15619681110957157,1.8123193290553754
0.28193000000003426,-0.1917515800850632,-1.5300428863497932,-0.15319555853199382,1.7820042285816997
0.28360000000003543,-0.19427242037797698,-1.4889551778041412,-0.15024501492787593,1.7515898603313516
0.2852700000000366,-0.19672460001584824,-1.4478139646946382,-0.14734533923182833,1.721084410736082
0.2869400000000378,-0.1991080382531938,-1.4066295380512002,-0.1444966767702897,1.6904959909314412
0.28861000000003895,-0.20142267139969036,-1.365412032971854,-0.14169915938634672,1.6598326378685544
0.2902800000000401,-0.2036684525626703,-1.3241714321063287,-0.1389529055626772,1.6291023154484519
0.2919500000000413,-0.20584535139549884,-1.2829175692146337,-0.13625802054258604,1.5983129156712417
0.29362000000004246,-0.20795335385194566,-1.2416601327851475,-0.13361459644911486,1.567472259792884
0.29529000000004363,-0.20999246194663734,-1.2004086696975396,-0.1310227124022185,1.5365880994827728
0.2969600000000448,-0.21196269352165398,-1.159172588916633,-0.12848243463401232,1.505668117975779
0.29863000000004597,-0.2138640820193109,-1.1179611652040824,-0.12599381660210465,1.4747199312128367
0.30030000000004714,-0.2156966762611443,-1.0767835428354846,-0.12355689910103798,1.4437510889645733
0.3019700000000425,-0.2174605402330946,-1.0356487393114033,-0.12117171037187985,1.4127690759329925
0.3036400000000378,-0.21915575287689798,-0.9945656490506244,-0.11883826620996282,1.3817813128259684
0.30531000000003317,-0.22078240788758685,-0.9535430470567797,-0.11655657007090536,1.3507951574012913
0.3069800000000285,-0.2223406135171083,-0.9125895925472541,-0.11432661317488467,1.3198179054752184
0.30865000000002385,-0.22383049238395877,-0.8717138325360583,-0.11214837460926555,1.2888567918924334
0.3103200000000192,-0.22525218128875732,-0.8309242053620828,-0.11002182142964424,1.2579189914540085
0.31199000000001453,-0.22660583103565948,-0.7902290441548558,-0.10794690875937973,1.2270116198003787
0.3136600000000099,-0.22789160625950144,-0.7496365802304669,-0.10592357988769016,1.1961417342466338
0.3153300000000052,-0.22910968525855185,-0.7091549464108308,-0.10395176636639575,1.1653163345677229
0.31700000000000056,-0.23026025983273815,-0.6687921802599573,-0.10203138810539389,1.134542363731423
0.31866000000000405,-0.23133724836139646,-0.6287969361259468,-0.10017339265328669,1.1040105597700034
0.32032000000000754,-0.23234795585341417,-0.5889347428565154,-0.09836602637224452,1.0735431084678846
0.32198000000001104,-0.2332926095080358,-0.5492132321548573,-0.09660917691227063,1.0431466653113992
0.3236400000000145,-0.23417144912509005,-0.5096399544089876,-0.09490272091961377,1.0128278326354472
0.325300000000018,-0.23498472697222722,-0.47022238135388866,-0.09324652412463254,0.9825931600591848
0.3269600000000215,-0.23573270765648632,-0.4309679086256062,-0.09164044142898442,0.9524491448636074
0.328620000000025,-0.23641566800000988,-0.39188385820388383,-0.09008431699223678,0.9224022323103968
0.3302800000000285,-0.23703389691971868,-0.3529774807402323,-0.0885779843179976,0.8924588159015702
0.331940000000032,-0.23758769531075388,-0.31425595776861726,-0.08712126633966456,0.862625237579611
0.3336000000000355,-0.23807737593348965,-0.2757264037962252,-0.08571397550589133,0.8329077878679011
0.33527000000003665,-0.2385056361085007,-0.23716504931301038,-0.084347881630085,0.8031344515785124
0.3369400000000378,-0.2388696735571105,-0.1988122010005948,-0.08303140035922357,0.7734912416995757
